transmittance,probability_density
1.274e-03,5.031e-26
3.821e-03,5.385e-20
6.368e-03,3.428e-17
8.915e-03,2.409e-15
1.146e-02,5.773e-14
1.401e-02,7.293e-13
1.656e-02,6.025e-12
1.910e-02,3.677e-11
2.165e-02,1.789e-10
2.420e-02,7.299e-10
2.674e-02,2.586e-09
2.929e-02,8.168e-09
3.184e-02,2.344e-08
3.439e-02,6.201e-08
3.693e-02,1.530e-07
3.948e-02,3.556e-07
4.203e-02,7.838e-07
4.457e-02,1.649e-06
4.712e-02,3.329e-06
4.967e-02,6.478e-06
5.221e-02,1.219e-05
5.476e-02,2.226e-05
5.731e-02,3.955e-05
5.986e-02,6.854e-05
6.240e-02,1.161e-04
6.495e-02,1.925e-04
6.750e-02,3.131e-04
7.004e-02,5.001e-04
7.259e-02,7.856e-04
7.514e-02,1.215e-03
7.769e-02,1.852e-03
8.023e-02,2.785e-03
8.278e-02,4.135e-03
8.533e-02,6.066e-03
8.787e-02,8.799e-03
9.042e-02,1.263e-02
9.297e-02,1.794e-02
9.551e-02,2.526e-02
9.806e-02,3.523e-02
1.006e-01,4.873e-02
1.032e-01,6.685e-02
1.057e-01,9.100e-02
1.082e-01,1.230e-01
1.108e-01,1.650e-01
1.133e-01,2.200e-01
1.159e-01,2.914e-01
1.184e-01,3.836e-01
1.210e-01,5.021e-01
1.235e-01,6.535e-01
1.261e-01,8.460e-01
1.286e-01,1.089e+00
1.312e-01,1.396e+00
1.337e-01,1.781e+00
1.363e-01,2.261e+00
1.388e-01,2.858e+00
1.414e-01,3.597e+00
1.439e-01,4.508e+00
1.465e-01,5.629e+00
1.490e-01,7.001e+00
1.515e-01,8.676e+00
1.541e-01,1.071e+01
1.566e-01,1.318e+01
1.592e-01,1.617e+01
1.617e-01,1.976e+01
1.643e-01,2.409e+01
1.668e-01,2.927e+01
1.694e-01,3.545e+01
1.719e-01,4.283e+01
1.745e-01,5.160e+01
1.770e-01,6.201e+01
1.796e-01,7.436e+01
1.821e-01,0.000e+00
1.847e-01,0.000e+00
1.872e-01,0.000e+00
1.898e-01,0.000e+00
1.923e-01,0.000e+00
1.948e-01,0.000e+00
1.974e-01,0.000e+00
1.999e-01,0.000e+00
2.025e-01,0.000e+00
2.050e-01,0.000e+00
2.076e-01,0.000e+00
2.101e-01,0.000e+00
2.127e-01,0.000e+00
2.152e-01,0.000e+00
2.178e-01,0.000e+00
2.203e-01,0.000e+00
2.229e-01,0.000e+00
2.254e-01,0.000e+00
2.280e-01,0.000e+00
2.305e-01,0.000e+00
2.331e-01,0.000e+00
2.356e-01,0.000e+00
2.381e-01,0.000e+00
2.407e-01,0.000e+00
2.432e-01,0.000e+00
2.458e-01,0.000e+00
2.483e-01,0.000e+00
2.509e-01,0.000e+00
2.534e-01,0.000e+00
2.560e-01,0.000e+00
2.585e-01,0.000e+00
2.611e-01,0.000e+00
2.636e-01,0.000e+00
2.662e-01,0.000e+00
2.687e-01,0.000e+00
2.713e-01,0.000e+00
2.738e-01,0.000e+00
2.764e-01,0.000e+00
2.789e-01,0.000e+00
2.814e-01,0.000e+00
2.840e-01,0.000e+00
2.865e-01,0.000e+00
2.891e-01,0.000e+00
2.916e-01,0.000e+00
2.942e-01,0.000e+00
2.967e-01,0.000e+00
2.993e-01,0.000e+00
3.018e-01,0.000e+00
3.044e-01,0.000e+00
3.069e-01,0.000e+00
3.095e-01,0.000e+00
3.120e-01,0.000e+00
3.146e-01,0.000e+00
3.171e-01,0.000e+00
3.197e-01,0.000e+00
3.222e-01,0.000e+00
3.247e-01,0.000e+00
3.273e-01,0.000e+00
3.298e-01,0.000e+00
3.324e-01,0.000e+00
3.349e-01,0.000e+00
3.375e-01,0.000e+00
3.400e-01,0.000e+00
3.426e-01,0.000e+00
3.451e-01,0.000e+00
3.477e-01,0.000e+00
3.502e-01,0.000e+00
3.528e-01,0.000e+00
3.553e-01,0.000e+00
3.579e-01,0.000e+00
3.604e-01,0.000e+00
3.630e-01,0.000e+00
3.655e-01,0.000e+00
3.680e-01,0.000e+00
3.706e-01,0.000e+00
3.731e-01,0.000e+00
3.757e-01,0.000e+00
3.782e-01,0.000e+00
3.808e-01,0.000e+00
3.833e-01,0.000e+00
3.859e-01,0.000e+00
3.884e-01,0.000e+00
3.910e-01,0.000e+00
3.935e-01,0.000e+00
3.961e-01,0.000e+00
3.986e-01,0.000e+00
4.012e-01,0.000e+00
4.037e-01,0.000e+00
4.063e-01,0.000e+00
4.088e-01,0.000e+00
4.113e-01,0.000e+00
4.139e-01,0.000e+00
4.164e-01,0.000e+00
4.190e-01,0.000e+00
4.215e-01,0.000e+00
4.241e-01,0.000e+00
4.266e-01,0.000e+00
4.292e-01,0.000e+00
4.317e-01,0.000e+00
4.343e-01,0.000e+00
4.368e-01,0.000e+00
4.394e-01,0.000e+00
4.419e-01,0.000e+00
4.445e-01,0.000e+00
4.470e-01,0.000e+00
4.496e-01,0.000e+00
4.521e-01,0.000e+00
4.546e-01,0.000e+00
4.572e-01,0.000e+00
4.597e-01,0.000e+00
4.623e-01,0.000e+00
4.648e-01,0.000e+00
4.674e-01,0.000e+00
4.699e-01,0.000e+00
4.725e-01,0.000e+00
4.750e-01,0.000e+00
4.776e-01,0.000e+00
4.801e-01,0.000e+00
4.827e-01,0.000e+00
4.852e-01,0.000e+00
4.878e-01,0.000e+00
4.903e-01,0.000e+00
4.929e-01,0.000e+00
4.954e-01,0.000e+00
4.979e-01,0.000e+00
5.005e-01,0.000e+00
5.030e-01,0.000e+00
5.056e-01,0.000e+00
5.081e-01,0.000e+00
