transmittance,probability_density
1.061e-03,6.350e-25
3.184e-03,4.833e-19
5.306e-03,2.624e-16
7.429e-03,1.661e-14
9.551e-03,3.680e-13
1.167e-02,4.367e-12
1.380e-02,3.425e-11
1.592e-02,1.999e-10
1.804e-02,9.352e-10
2.016e-02,3.685e-09
2.229e-02,1.266e-08
2.441e-02,3.885e-08
2.653e-02,1.086e-07
2.865e-02,2.805e-07
3.078e-02,6.769e-07
3.290e-02,1.540e-06
3.502e-02,3.329e-06
3.714e-02,6.877e-06
3.927e-02,1.364e-05
4.139e-02,2.611e-05
4.351e-02,4.838e-05
4.563e-02,8.703e-05
4.776e-02,1.524e-04
4.988e-02,2.606e-04
5.200e-02,4.356e-04
5.412e-02,7.133e-04
5.624e-02,1.146e-03
5.837e-02,1.810e-03
6.049e-02,2.811e-03
6.261e-02,4.301e-03
6.473e-02,6.488e-03
6.686e-02,9.657e-03
6.898e-02,1.420e-02
7.110e-02,2.063e-02
7.322e-02,2.965e-02
7.535e-02,4.217e-02
7.747e-02,5.940e-02
7.959e-02,8.289e-02
8.171e-02,1.147e-01
8.384e-02,1.573e-01
8.596e-02,2.141e-01
8.808e-02,2.893e-01
9.020e-02,3.880e-01
9.233e-02,5.169e-01
9.445e-02,6.841e-01
9.657e-02,8.997e-01
9.869e-02,1.176e+00
1.008e-01,1.529e+00
1.029e-01,1.977e+00
1.051e-01,2.543e+00
1.072e-01,3.255e+00
1.093e-01,4.145e+00
1.114e-01,5.255e+00
1.136e-01,6.631e+00
1.157e-01,8.333e+00
1.178e-01,1.043e+01
1.199e-01,1.300e+01
1.220e-01,1.614e+01
1.242e-01,1.996e+01
1.263e-01,2.460e+01
1.284e-01,3.022e+01
1.305e-01,3.699e+01
1.327e-01,4.514e+01
1.348e-01,5.490e+01
1.369e-01,6.658e+01
1.390e-01,8.050e+01
1.411e-01,0.000e+00
1.433e-01,0.000e+00
1.454e-01,0.000e+00
1.475e-01,0.000e+00
1.496e-01,0.000e+00
1.518e-01,0.000e+00
1.539e-01,0.000e+00
1.560e-01,0.000e+00
1.581e-01,0.000e+00
1.602e-01,0.000e+00
1.624e-01,0.000e+00
1.645e-01,0.000e+00
1.666e-01,0.000e+00
1.687e-01,0.000e+00
1.709e-01,0.000e+00
1.730e-01,0.000e+00
1.751e-01,0.000e+00
1.772e-01,0.000e+00
1.793e-01,0.000e+00
1.815e-01,0.000e+00
1.836e-01,0.000e+00
1.857e-01,0.000e+00
1.878e-01,0.000e+00
1.900e-01,0.000e+00
1.921e-01,0.000e+00
1.942e-01,0.000e+00
1.963e-01,0.000e+00
1.984e-01,0.000e+00
2.006e-01,0.000e+00
2.027e-01,0.000e+00
2.048e-01,0.000e+00
2.069e-01,0.000e+00
2.091e-01,0.000e+00
2.112e-01,0.000e+00
2.133e-01,0.000e+00
2.154e-01,0.000e+00
2.176e-01,0.000e+00
2.197e-01,0.000e+00
2.218e-01,0.000e+00
2.239e-01,0.000e+00
2.260e-01,0.000e+00
2.282e-01,0.000e+00
2.303e-01,0.000e+00
2.324e-01,0.000e+00
2.345e-01,0.000e+00
2.367e-01,0.000e+00
2.388e-01,0.000e+00
2.409e-01,0.000e+00
2.430e-01,0.000e+00
2.451e-01,0.000e+00
2.473e-01,0.000e+00
2.494e-01,0.000e+00
2.515e-01,0.000e+00
2.536e-01,0.000e+00
2.558e-01,0.000e+00
2.579e-01,0.000e+00
2.600e-01,0.000e+00
2.621e-01,0.000e+00
2.642e-01,0.000e+00
2.664e-01,0.000e+00
2.685e-01,0.000e+00
2.706e-01,0.000e+00
2.727e-01,0.000e+00
2.749e-01,0.000e+00
2.770e-01,0.000e+00
2.791e-01,0.000e+00
2.812e-01,0.000e+00
2.833e-01,0.000e+00
2.855e-01,0.000e+00
2.876e-01,0.000e+00
2.897e-01,0.000e+00
2.918e-01,0.000e+00
2.940e-01,0.000e+00
2.961e-01,0.000e+00
2.982e-01,0.000e+00
3.003e-01,0.000e+00
3.024e-01,0.000e+00
3.046e-01,0.000e+00
3.067e-01,0.000e+00
3.088e-01,0.000e+00
3.109e-01,0.000e+00
3.131e-01,0.000e+00
3.152e-01,0.000e+00
3.173e-01,0.000e+00
3.194e-01,0.000e+00
3.216e-01,0.000e+00
3.237e-01,0.000e+00
3.258e-01,0.000e+00
3.279e-01,0.000e+00
3.300e-01,0.000e+00
3.322e-01,0.000e+00
3.343e-01,0.000e+00
3.364e-01,0.000e+00
3.385e-01,0.000e+00
3.407e-01,0.000e+00
3.428e-01,0.000e+00
3.449e-01,0.000e+00
3.470e-01,0.000e+00
3.491e-01,0.000e+00
3.513e-01,0.000e+00
3.534e-01,0.000e+00
3.555e-01,0.000e+00
3.576e-01,0.000e+00
3.598e-01,0.000e+00
3.619e-01,0.000e+00
3.640e-01,0.000e+00
3.661e-01,0.000e+00
3.682e-01,0.000e+00
3.704e-01,0.000e+00
3.725e-01,0.000e+00
3.746e-01,0.000e+00
3.767e-01,0.000e+00
3.789e-01,0.000e+00
3.810e-01,0.000e+00
3.831e-01,0.000e+00
3.852e-01,0.000e+00
3.873e-01,0.000e+00
3.895e-01,0.000e+00
3.916e-01,0.000e+00
3.937e-01,0.000e+00
3.958e-01,0.000e+00
3.980e-01,0.000e+00
4.001e-01,0.000e+00
4.022e-01,0.000e+00
4.043e-01,0.000e+00
4.064e-01,0.000e+00
4.086e-01,0.000e+00
4.107e-01,0.000e+00
4.128e-01,0.000e+00
4.149e-01,0.000e+00
4.171e-01,0.000e+00
4.192e-01,0.000e+00
4.213e-01,0.000e+00
4.234e-01,0.000e+00
