transmittance,probability_density
1.045e-01,3.473e-09
1.083e-01,6.101e-09
1.122e-01,1.051e-08
1.160e-01,1.778e-08
1.199e-01,2.958e-08
1.238e-01,4.841e-08
1.276e-01,7.805e-08
1.315e-01,1.241e-07
1.353e-01,1.946e-07
1.392e-01,3.015e-07
1.430e-01,4.616e-07
1.469e-01,6.987e-07
1.508e-01,1.046e-06
1.546e-01,1.551e-06
1.585e-01,2.278e-06
1.623e-01,3.315e-06
1.662e-01,4.781e-06
1.701e-01,6.839e-06
1.739e-01,9.704e-06
1.778e-01,1.367e-05
1.816e-01,1.911e-05
1.855e-01,2.653e-05
1.893e-01,3.659e-05
1.932e-01,5.013e-05
1.971e-01,6.828e-05
2.009e-01,9.244e-05
2.048e-01,1.244e-04
2.086e-01,1.666e-04
2.125e-01,2.219e-04
2.163e-01,2.940e-04
2.202e-01,3.876e-04
2.241e-01,5.086e-04
2.279e-01,6.644e-04
2.318e-01,8.641e-04
2.356e-01,1.119e-03
2.395e-01,1.443e-03
2.433e-01,1.853e-03
2.472e-01,2.372e-03
2.511e-01,3.023e-03
2.549e-01,3.839e-03
2.588e-01,4.859e-03
2.626e-01,6.128e-03
2.665e-01,7.704e-03
2.703e-01,9.653e-03
2.742e-01,1.206e-02
2.781e-01,1.502e-02
2.819e-01,1.864e-02
2.858e-01,2.308e-02
2.896e-01,2.849e-02
2.935e-01,3.508e-02
2.974e-01,4.308e-02
3.012e-01,5.276e-02
3.051e-01,6.446e-02
3.089e-01,7.856e-02
3.128e-01,9.551e-02
3.166e-01,1.159e-01
3.205e-01,1.402e-01
3.244e-01,1.693e-01
3.282e-01,2.040e-01
3.321e-01,2.453e-01
3.359e-01,2.943e-01
3.398e-01,3.524e-01
3.436e-01,4.212e-01
3.475e-01,5.025e-01
3.514e-01,5.983e-01
3.552e-01,7.110e-01
3.591e-01,8.435e-01
3.629e-01,9.990e-01
3.668e-01,1.181e+00
3.706e-01,1.394e+00
3.745e-01,1.643e+00
3.784e-01,1.933e+00
3.822e-01,2.270e+00
3.861e-01,2.663e+00
3.899e-01,3.119e+00
3.938e-01,3.648e+00
3.976e-01,4.260e+00
4.015e-01,4.969e+00
4.054e-01,5.788e+00
4.092e-01,6.733e+00
4.131e-01,7.822e+00
4.169e-01,9.078e+00
4.208e-01,1.052e+01
4.247e-01,1.218e+01
4.285e-01,1.409e+01
4.324e-01,1.629e+01
4.362e-01,1.881e+01
4.401e-01,2.170e+01
4.439e-01,2.503e+01
4.478e-01,2.888e+01
4.517e-01,3.340e+01
4.555e-01,0.000e+00
4.594e-01,0.000e+00
4.632e-01,0.000e+00
4.671e-01,0.000e+00
4.709e-01,0.000e+00
4.748e-01,0.000e+00
4.787e-01,0.000e+00
4.825e-01,0.000e+00
4.864e-01,0.000e+00
4.902e-01,0.000e+00
4.941e-01,0.000e+00
4.979e-01,0.000e+00
5.018e-01,0.000e+00
5.057e-01,0.000e+00
5.095e-01,0.000e+00
5.134e-01,0.000e+00
5.172e-01,0.000e+00
5.211e-01,0.000e+00
5.249e-01,0.000e+00
5.288e-01,0.000e+00
5.327e-01,0.000e+00
5.365e-01,0.000e+00
5.404e-01,0.000e+00
5.442e-01,0.000e+00
5.481e-01,0.000e+00
5.520e-01,0.000e+00
5.558e-01,0.000e+00
5.597e-01,0.000e+00
5.635e-01,0.000e+00
5.674e-01,0.000e+00
5.712e-01,0.000e+00
5.751e-01,0.000e+00
5.790e-01,0.000e+00
5.828e-01,0.000e+00
5.867e-01,0.000e+00
5.905e-01,0.000e+00
5.944e-01,0.000e+00
5.982e-01,0.000e+00
6.021e-01,0.000e+00
6.060e-01,0.000e+00
6.098e-01,0.000e+00
6.137e-01,0.000e+00
6.175e-01,0.000e+00
6.214e-01,0.000e+00
6.252e-01,0.000e+00
6.291e-01,0.000e+00
6.330e-01,0.000e+00
6.368e-01,0.000e+00
6.407e-01,0.000e+00
6.445e-01,0.000e+00
6.484e-01,0.000e+00
6.522e-01,0.000e+00
6.561e-01,0.000e+00
6.600e-01,0.000e+00
6.638e-01,0.000e+00
6.677e-01,0.000e+00
6.715e-01,0.000e+00
6.754e-01,0.000e+00
6.793e-01,0.000e+00
6.831e-01,0.000e+00
6.870e-01,0.000e+00
6.908e-01,0.000e+00
6.947e-01,0.000e+00
6.985e-01,0.000e+00
7.024e-01,0.000e+00
7.063e-01,0.000e+00
7.101e-01,0.000e+00
7.140e-01,0.000e+00
7.178e-01,0.000e+00
7.217e-01,0.000e+00
7.255e-01,0.000e+00
7.294e-01,0.000e+00
7.333e-01,0.000e+00
7.371e-01,0.000e+00
7.410e-01,0.000e+00
7.448e-01,0.000e+00
7.487e-01,0.000e+00
7.525e-01,0.000e+00
7.564e-01,0.000e+00
7.603e-01,0.000e+00
7.641e-01,0.000e+00
7.680e-01,0.000e+00
7.718e-01,0.000e+00
7.757e-01,0.000e+00
7.795e-01,0.000e+00
7.834e-01,0.000e+00
7.873e-01,0.000e+00
7.911e-01,0.000e+00
7.950e-01,0.000e+00
7.988e-01,0.000e+00
8.027e-01,0.000e+00
8.066e-01,0.000e+00
8.104e-01,0.000e+00
8.143e-01,0.000e+00
8.181e-01,0.000e+00
8.220e-01,0.000e+00
8.258e-01,0.000e+00
8.297e-01,0.000e+00
8.336e-01,0.000e+00
8.374e-01,0.000e+00
8.413e-01,0.000e+00
8.451e-01,0.000e+00
8.490e-01,0.000e+00
8.528e-01,0.000e+00
8.567e-01,0.000e+00
8.606e-01,0.000e+00
8.644e-01,0.000e+00
8.683e-01,0.000e+00
8.721e-01,0.000e+00
