transmittance,probability_density
1.803e-03,4.293e-30
5.409e-03,1.717e-23
9.015e-03,2.023e-20
1.262e-02,2.135e-18
1.623e-02,6.933e-17
1.983e-02,1.117e-15
2.344e-02,1.131e-14
2.704e-02,8.212e-14
3.065e-02,4.653e-13
3.426e-02,2.174e-12
3.786e-02,8.704e-12
4.147e-02,3.072e-11
4.507e-02,9.760e-11
4.868e-02,2.837e-10
5.228e-02,7.642e-10
5.589e-02,1.927e-09
5.950e-02,4.586e-09
6.310e-02,1.037e-08
6.671e-02,2.242e-08
7.031e-02,4.654e-08
7.392e-02,9.315e-08
7.752e-02,1.804e-07
8.113e-02,3.389e-07
8.474e-02,6.197e-07
8.834e-02,1.105e-06
9.195e-02,1.925e-06
9.555e-02,3.284e-06
9.916e-02,5.491e-06
1.028e-01,9.016e-06
1.064e-01,1.455e-05
1.100e-01,2.312e-05
1.136e-01,3.618e-05
1.172e-01,5.585e-05
1.208e-01,8.507e-05
1.244e-01,1.280e-04
1.280e-01,1.904e-04
1.316e-01,2.800e-04
1.352e-01,4.076e-04
1.388e-01,5.875e-04
1.424e-01,8.389e-04
1.460e-01,1.187e-03
1.496e-01,1.666e-03
1.532e-01,2.320e-03
1.569e-01,3.205e-03
1.605e-01,4.396e-03
1.641e-01,5.987e-03
1.677e-01,8.100e-03
1.713e-01,1.089e-02
1.749e-01,1.455e-02
1.785e-01,1.932e-02
1.821e-01,2.552e-02
1.857e-01,3.352e-02
1.893e-01,4.379e-02
1.929e-01,5.694e-02
1.965e-01,7.367e-02
2.001e-01,9.488e-02
2.037e-01,1.216e-01
2.073e-01,1.553e-01
2.109e-01,1.974e-01
2.145e-01,2.499e-01
2.182e-01,3.152e-01
2.218e-01,3.960e-01
2.254e-01,4.957e-01
2.290e-01,6.183e-01
2.326e-01,7.687e-01
2.362e-01,9.524e-01
2.398e-01,1.176e+00
2.434e-01,1.448e+00
2.470e-01,1.778e+00
2.506e-01,2.176e+00
2.542e-01,2.655e+00
2.578e-01,3.231e+00
2.614e-01,3.922e+00
2.650e-01,4.748e+00
2.686e-01,5.733e+00
2.722e-01,6.906e+00
2.758e-01,8.299e+00
2.794e-01,9.950e+00
2.831e-01,1.190e+01
2.867e-01,1.421e+01
2.903e-01,1.692e+01
2.939e-01,2.011e+01
2.975e-01,2.386e+01
3.011e-01,2.826e+01
3.047e-01,3.340e+01
3.083e-01,3.944e+01
3.119e-01,4.660e+01
3.155e-01,0.000e+00
3.191e-01,0.000e+00
3.227e-01,0.000e+00
3.263e-01,0.000e+00
3.299e-01,0.000e+00
3.335e-01,0.000e+00
3.371e-01,0.000e+00
3.407e-01,0.000e+00
3.444e-01,0.000e+00
3.480e-01,0.000e+00
3.516e-01,0.000e+00
3.552e-01,0.000e+00
3.588e-01,0.000e+00
3.624e-01,0.000e+00
3.660e-01,0.000e+00
3.696e-01,0.000e+00
3.732e-01,0.000e+00
3.768e-01,0.000e+00
3.804e-01,0.000e+00
3.840e-01,0.000e+00
3.876e-01,0.000e+00
3.912e-01,0.000e+00
3.948e-01,0.000e+00
3.984e-01,0.000e+00
4.020e-01,0.000e+00
4.057e-01,0.000e+00
4.093e-01,0.000e+00
4.129e-01,0.000e+00
4.165e-01,0.000e+00
4.201e-01,0.000e+00
4.237e-01,0.000e+00
4.273e-01,0.000e+00
4.309e-01,0.000e+00
4.345e-01,0.000e+00
4.381e-01,0.000e+00
4.417e-01,0.000e+00
4.453e-01,0.000e+00
4.489e-01,0.000e+00
4.525e-01,0.000e+00
4.561e-01,0.000e+00
4.597e-01,0.000e+00
4.633e-01,0.000e+00
4.670e-01,0.000e+00
4.706e-01,0.000e+00
4.742e-01,0.000e+00
4.778e-01,0.000e+00
4.814e-01,0.000e+00
4.850e-01,0.000e+00
4.886e-01,0.000e+00
4.922e-01,0.000e+00
4.958e-01,0.000e+00
4.994e-01,0.000e+00
5.030e-01,0.000e+00
5.066e-01,0.000e+00
5.102e-01,0.000e+00
5.138e-01,0.000e+00
5.174e-01,0.000e+00
5.210e-01,0.000e+00
5.246e-01,0.000e+00
5.282e-01,0.000e+00
5.319e-01,0.000e+00
5.355e-01,0.000e+00
5.391e-01,0.000e+00
5.427e-01,0.000e+00
5.463e-01,0.000e+00
5.499e-01,0.000e+00
5.535e-01,0.000e+00
5.571e-01,0.000e+00
5.607e-01,0.000e+00
5.643e-01,0.000e+00
5.679e-01,0.000e+00
5.715e-01,0.000e+00
5.751e-01,0.000e+00
5.787e-01,0.000e+00
5.823e-01,0.000e+00
5.859e-01,0.000e+00
5.895e-01,0.000e+00
5.932e-01,0.000e+00
5.968e-01,0.000e+00
6.004e-01,0.000e+00
6.040e-01,0.000e+00
6.076e-01,0.000e+00
6.112e-01,0.000e+00
6.148e-01,0.000e+00
6.184e-01,0.000e+00
6.220e-01,0.000e+00
6.256e-01,0.000e+00
6.292e-01,0.000e+00
6.328e-01,0.000e+00
6.364e-01,0.000e+00
6.400e-01,0.000e+00
6.436e-01,0.000e+00
6.472e-01,0.000e+00
6.508e-01,0.000e+00
6.545e-01,0.000e+00
6.581e-01,0.000e+00
6.617e-01,0.000e+00
6.653e-01,0.000e+00
6.689e-01,0.000e+00
6.725e-01,0.000e+00
6.761e-01,0.000e+00
6.797e-01,0.000e+00
6.833e-01,0.000e+00
6.869e-01,0.000e+00
6.905e-01,0.000e+00
6.941e-01,0.000e+00
6.977e-01,0.000e+00
7.013e-01,0.000e+00
7.049e-01,0.000e+00
7.085e-01,0.000e+00
7.121e-01,0.000e+00
7.158e-01,0.000e+00
7.194e-01,0.000e+00
