transmittance,probability_density
1.504e-01,7.130e-09
1.547e-01,1.144e-08
1.589e-01,1.811e-08
1.632e-01,2.835e-08
1.674e-01,4.386e-08
1.717e-01,6.713e-08
1.760e-01,1.017e-07
1.802e-01,1.526e-07
1.845e-01,2.268e-07
1.887e-01,3.341e-07
1.930e-01,4.880e-07
1.972e-01,7.071e-07
2.015e-01,1.017e-06
2.058e-01,1.451e-06
2.100e-01,2.056e-06
2.143e-01,2.893e-06
2.185e-01,4.044e-06
2.228e-01,5.617e-06
2.271e-01,7.756e-06
2.313e-01,1.065e-05
2.356e-01,1.453e-05
2.398e-01,1.972e-05
2.441e-01,2.664e-05
2.484e-01,3.579e-05
2.526e-01,4.784e-05
2.569e-01,6.366e-05
2.611e-01,8.433e-05
2.654e-01,1.112e-04
2.696e-01,1.460e-04
2.739e-01,1.909e-04
2.782e-01,2.487e-04
2.824e-01,3.226e-04
2.867e-01,4.169e-04
2.909e-01,5.369e-04
2.952e-01,6.889e-04
2.995e-01,8.809e-04
3.037e-01,1.123e-03
3.080e-01,1.426e-03
3.122e-01,1.806e-03
3.165e-01,2.279e-03
3.207e-01,2.868e-03
3.250e-01,3.599e-03
3.293e-01,4.504e-03
3.335e-01,5.620e-03
3.378e-01,6.994e-03
3.420e-01,8.681e-03
3.463e-01,1.075e-02
3.506e-01,1.327e-02
3.548e-01,1.635e-02
3.591e-01,2.010e-02
3.633e-01,2.464e-02
3.676e-01,3.015e-02
3.719e-01,3.680e-02
3.761e-01,4.483e-02
3.804e-01,5.449e-02
3.846e-01,6.610e-02
3.889e-01,8.002e-02
3.931e-01,9.669e-02
3.974e-01,1.166e-01
4.017e-01,1.404e-01
4.059e-01,1.686e-01
4.102e-01,2.023e-01
4.144e-01,2.422e-01
4.187e-01,2.895e-01
4.230e-01,3.454e-01
4.272e-01,4.115e-01
4.315e-01,4.895e-01
4.357e-01,5.813e-01
4.400e-01,6.893e-01
4.442e-01,8.162e-01
4.485e-01,9.651e-01
4.528e-01,1.140e+00
4.570e-01,1.344e+00
4.613e-01,1.582e+00
4.655e-01,1.861e+00
4.698e-01,2.185e+00
4.741e-01,2.564e+00
4.783e-01,3.004e+00
4.826e-01,3.516e+00
4.868e-01,4.110e+00
4.911e-01,4.800e+00
4.954e-01,5.600e+00
4.996e-01,6.527e+00
5.039e-01,7.601e+00
5.081e-01,8.844e+00
5.124e-01,1.028e+01
5.166e-01,1.195e+01
5.209e-01,1.387e+01
5.252e-01,1.611e+01
5.294e-01,1.870e+01
5.337e-01,2.172e+01
5.379e-01,2.525e+01
5.422e-01,2.948e+01
5.465e-01,3.502e+01
5.507e-01,0.000e+00
5.550e-01,0.000e+00
5.592e-01,0.000e+00
5.635e-01,0.000e+00
5.677e-01,0.000e+00
5.720e-01,0.000e+00
5.763e-01,0.000e+00
5.805e-01,0.000e+00
5.848e-01,0.000e+00
5.890e-01,0.000e+00
5.933e-01,0.000e+00
5.976e-01,0.000e+00
6.018e-01,0.000e+00
6.061e-01,0.000e+00
6.103e-01,0.000e+00
6.146e-01,0.000e+00
6.189e-01,0.000e+00
6.231e-01,0.000e+00
6.274e-01,0.000e+00
6.316e-01,0.000e+00
6.359e-01,0.000e+00
6.401e-01,0.000e+00
6.444e-01,0.000e+00
6.487e-01,0.000e+00
6.529e-01,0.000e+00
6.572e-01,0.000e+00
6.614e-01,0.000e+00
6.657e-01,0.000e+00
6.700e-01,0.000e+00
6.742e-01,0.000e+00
6.785e-01,0.000e+00
6.827e-01,0.000e+00
6.870e-01,0.000e+00
6.912e-01,0.000e+00
6.955e-01,0.000e+00
6.998e-01,0.000e+00
7.040e-01,0.000e+00
7.083e-01,0.000e+00
7.125e-01,0.000e+00
7.168e-01,0.000e+00
7.211e-01,0.000e+00
7.253e-01,0.000e+00
7.296e-01,0.000e+00
7.338e-01,0.000e+00
7.381e-01,0.000e+00
7.424e-01,0.000e+00
7.466e-01,0.000e+00
7.509e-01,0.000e+00
7.551e-01,0.000e+00
7.594e-01,0.000e+00
7.636e-01,0.000e+00
7.679e-01,0.000e+00
7.722e-01,0.000e+00
7.764e-01,0.000e+00
7.807e-01,0.000e+00
7.849e-01,0.000e+00
7.892e-01,0.000e+00
7.935e-01,0.000e+00
7.977e-01,0.000e+00
8.020e-01,0.000e+00
8.062e-01,0.000e+00
8.105e-01,0.000e+00
8.147e-01,0.000e+00
8.190e-01,0.000e+00
8.233e-01,0.000e+00
8.275e-01,0.000e+00
8.318e-01,0.000e+00
8.360e-01,0.000e+00
8.403e-01,0.000e+00
8.446e-01,0.000e+00
8.488e-01,0.000e+00
8.531e-01,0.000e+00
8.573e-01,0.000e+00
8.616e-01,0.000e+00
8.659e-01,0.000e+00
8.701e-01,0.000e+00
8.744e-01,0.000e+00
8.786e-01,0.000e+00
8.829e-01,0.000e+00
8.871e-01,0.000e+00
8.914e-01,0.000e+00
8.957e-01,0.000e+00
8.999e-01,0.000e+00
9.042e-01,0.000e+00
9.084e-01,0.000e+00
9.127e-01,0.000e+00
9.170e-01,0.000e+00
9.212e-01,0.000e+00
9.255e-01,0.000e+00
9.297e-01,0.000e+00
9.340e-01,0.000e+00
9.382e-01,0.000e+00
9.425e-01,0.000e+00
9.468e-01,0.000e+00
9.510e-01,0.000e+00
9.553e-01,0.000e+00
9.595e-01,0.000e+00
9.638e-01,0.000e+00
9.681e-01,0.000e+00
9.723e-01,0.000e+00
9.766e-01,0.000e+00
9.808e-01,0.000e+00
9.851e-01,0.000e+00
9.894e-01,0.000e+00
9.936e-01,0.000e+00
9.979e-01,0.000e+00
