transmittance,probability_density
2.833e-01,7.502e-08
2.868e-01,9.707e-08
2.904e-01,1.252e-07
2.940e-01,1.611e-07
2.976e-01,2.066e-07
3.012e-01,2.642e-07
3.048e-01,3.370e-07
3.084e-01,4.288e-07
3.120e-01,5.441e-07
3.156e-01,6.886e-07
3.192e-01,8.693e-07
3.228e-01,1.095e-06
3.264e-01,1.376e-06
3.300e-01,1.724e-06
3.335e-01,2.157e-06
3.371e-01,2.692e-06
3.407e-01,3.352e-06
3.443e-01,4.165e-06
3.479e-01,5.164e-06
3.515e-01,6.391e-06
3.551e-01,7.893e-06
3.587e-01,9.729e-06
3.623e-01,1.197e-05
3.659e-01,1.470e-05
3.695e-01,1.802e-05
3.731e-01,2.204e-05
3.767e-01,2.692e-05
3.803e-01,3.283e-05
3.838e-01,3.996e-05
3.874e-01,4.856e-05
3.910e-01,5.891e-05
3.946e-01,7.136e-05
3.982e-01,8.630e-05
4.018e-01,1.042e-04
4.054e-01,1.256e-04
4.090e-01,1.513e-04
4.126e-01,1.818e-04
4.162e-01,2.183e-04
4.198e-01,2.617e-04
4.234e-01,3.133e-04
4.270e-01,3.745e-04
4.306e-01,4.472e-04
4.341e-01,5.332e-04
4.377e-01,6.350e-04
4.413e-01,7.552e-04
4.449e-01,8.971e-04
4.485e-01,1.064e-03
4.521e-01,1.261e-03
4.557e-01,1.493e-03
4.593e-01,1.765e-03
4.629e-01,2.085e-03
4.665e-01,2.459e-03
4.701e-01,2.898e-03
4.737e-01,3.411e-03
4.773e-01,4.011e-03
4.809e-01,4.712e-03
4.844e-01,5.530e-03
4.880e-01,6.482e-03
4.916e-01,7.592e-03
4.952e-01,8.883e-03
4.988e-01,1.038e-02
5.024e-01,1.213e-02
5.060e-01,1.415e-02
5.096e-01,1.649e-02
5.132e-01,1.921e-02
5.168e-01,2.235e-02
5.204e-01,2.599e-02
5.240e-01,3.020e-02
5.276e-01,3.505e-02
5.311e-01,4.065e-02
5.347e-01,4.712e-02
5.383e-01,5.456e-02
5.419e-01,6.314e-02
5.455e-01,7.301e-02
5.491e-01,8.436e-02
5.527e-01,9.740e-02
5.563e-01,1.124e-01
5.599e-01,1.296e-01
5.635e-01,1.493e-01
5.671e-01,1.719e-01
5.707e-01,1.979e-01
5.743e-01,2.276e-01
5.779e-01,2.615e-01
5.814e-01,3.004e-01
5.850e-01,3.449e-01
5.886e-01,3.957e-01
5.922e-01,4.538e-01
5.958e-01,5.201e-01
5.994e-01,5.958e-01
6.030e-01,6.822e-01
6.066e-01,7.807e-01
6.102e-01,8.930e-01
6.138e-01,1.021e+00
6.174e-01,1.167e+00
6.210e-01,1.333e+00
6.246e-01,1.523e+00
6.282e-01,1.738e+00
6.317e-01,1.984e+00
6.353e-01,2.264e+00
6.389e-01,2.582e+00
6.425e-01,2.945e+00
6.461e-01,3.358e+00
6.497e-01,3.828e+00
6.533e-01,4.363e+00
6.569e-01,4.974e+00
6.605e-01,5.669e+00
6.641e-01,6.463e+00
6.677e-01,7.369e+00
6.713e-01,8.404e+00
6.749e-01,9.588e+00
6.785e-01,1.095e+01
6.820e-01,1.250e+01
6.856e-01,1.430e+01
6.892e-01,1.638e+01
6.928e-01,1.880e+01
6.964e-01,2.163e+01
7.000e-01,2.502e+01
7.036e-01,2.917e+01
7.072e-01,3.469e+01
7.108e-01,0.000e+00
7.144e-01,0.000e+00
7.180e-01,0.000e+00
7.216e-01,0.000e+00
7.252e-01,0.000e+00
7.287e-01,0.000e+00
7.323e-01,0.000e+00
7.359e-01,0.000e+00
7.395e-01,0.000e+00
7.431e-01,0.000e+00
7.467e-01,0.000e+00
7.503e-01,0.000e+00
7.539e-01,0.000e+00
7.575e-01,0.000e+00
7.611e-01,0.000e+00
7.647e-01,0.000e+00
7.683e-01,0.000e+00
7.719e-01,0.000e+00
7.755e-01,0.000e+00
7.790e-01,0.000e+00
7.826e-01,0.000e+00
7.862e-01,0.000e+00
7.898e-01,0.000e+00
7.934e-01,0.000e+00
7.970e-01,0.000e+00
8.006e-01,0.000e+00
8.042e-01,0.000e+00
8.078e-01,0.000e+00
8.114e-01,0.000e+00
8.150e-01,0.000e+00
8.186e-01,0.000e+00
8.222e-01,0.000e+00
8.258e-01,0.000e+00
8.293e-01,0.000e+00
8.329e-01,0.000e+00
8.365e-01,0.000e+00
8.401e-01,0.000e+00
8.437e-01,0.000e+00
8.473e-01,0.000e+00
8.509e-01,0.000e+00
8.545e-01,0.000e+00
8.581e-01,0.000e+00
8.617e-01,0.000e+00
8.653e-01,0.000e+00
8.689e-01,0.000e+00
8.725e-01,0.000e+00
8.761e-01,0.000e+00
8.796e-01,0.000e+00
8.832e-01,0.000e+00
8.868e-01,0.000e+00
8.904e-01,0.000e+00
8.940e-01,0.000e+00
8.976e-01,0.000e+00
9.012e-01,0.000e+00
9.048e-01,0.000e+00
9.084e-01,0.000e+00
9.120e-01,0.000e+00
9.156e-01,0.000e+00
9.192e-01,0.000e+00
9.228e-01,0.000e+00
9.263e-01,0.000e+00
9.299e-01,0.000e+00
9.335e-01,0.000e+00
9.371e-01,0.000e+00
9.407e-01,0.000e+00
9.443e-01,0.000e+00
9.479e-01,0.000e+00
9.515e-01,0.000e+00
9.551e-01,0.000e+00
9.587e-01,0.000e+00
9.623e-01,0.000e+00
9.659e-01,0.000e+00
9.695e-01,0.000e+00
9.731e-01,0.000e+00
9.766e-01,0.000e+00
9.802e-01,0.000e+00
9.838e-01,0.000e+00
9.874e-01,0.000e+00
9.910e-01,0.000e+00
9.946e-01,0.000e+00
9.982e-01,0.000e+00
