transmittance,probability_density
7.214e-01,2.707e-08
7.228e-01,2.986e-08
7.242e-01,3.294e-08
7.256e-01,3.634e-08
7.270e-01,4.009e-08
7.284e-01,4.422e-08
7.298e-01,4.879e-08
7.312e-01,5.382e-08
7.326e-01,5.938e-08
7.340e-01,6.551e-08
7.354e-01,7.228e-08
7.368e-01,7.975e-08
7.382e-01,8.800e-08
7.396e-01,9.710e-08
7.410e-01,1.071e-07
7.424e-01,1.182e-07
7.438e-01,1.305e-07
7.452e-01,1.440e-07
7.466e-01,1.589e-07
7.480e-01,1.754e-07
7.494e-01,1.936e-07
7.507e-01,2.136e-07
7.521e-01,2.358e-07
7.535e-01,2.603e-07
7.549e-01,2.874e-07
7.563e-01,3.173e-07
7.577e-01,3.503e-07
7.591e-01,3.867e-07
7.605e-01,4.270e-07
7.619e-01,4.715e-07
7.633e-01,5.207e-07
7.647e-01,5.750e-07
7.661e-01,6.351e-07
7.675e-01,7.014e-07
7.689e-01,7.748e-07
7.703e-01,8.559e-07
7.717e-01,9.455e-07
7.731e-01,1.045e-06
7.745e-01,1.154e-06
7.759e-01,1.275e-06
7.773e-01,1.409e-06
7.787e-01,1.558e-06
7.801e-01,1.721e-06
7.815e-01,1.903e-06
7.829e-01,2.103e-06
7.843e-01,2.325e-06
7.857e-01,2.571e-06
7.871e-01,2.843e-06
7.885e-01,3.144e-06
7.898e-01,3.477e-06
7.912e-01,3.846e-06
7.926e-01,4.254e-06
7.940e-01,4.707e-06
7.954e-01,5.208e-06
7.968e-01,5.762e-06
7.982e-01,6.377e-06
7.996e-01,7.058e-06
8.010e-01,7.813e-06
8.024e-01,8.649e-06
8.038e-01,9.577e-06
8.052e-01,1.060e-05
8.066e-01,1.174e-05
8.080e-01,1.301e-05
8.094e-01,1.441e-05
8.108e-01,1.597e-05
8.122e-01,1.769e-05
8.136e-01,1.961e-05
8.150e-01,2.173e-05
8.164e-01,2.409e-05
8.178e-01,2.672e-05
8.192e-01,2.963e-05
8.206e-01,3.286e-05
8.220e-01,3.645e-05
8.234e-01,4.044e-05
8.248e-01,4.488e-05
8.262e-01,4.981e-05
8.275e-01,5.529e-05
8.289e-01,6.139e-05
8.303e-01,6.817e-05
8.317e-01,7.572e-05
8.331e-01,8.411e-05
8.345e-01,9.346e-05
8.359e-01,1.039e-04
8.373e-01,1.155e-04
8.387e-01,1.284e-04
8.401e-01,1.428e-04
8.415e-01,1.588e-04
8.429e-01,1.767e-04
8.443e-01,1.966e-04
8.457e-01,2.189e-04
8.471e-01,2.437e-04
8.485e-01,2.714e-04
8.499e-01,3.023e-04
8.513e-01,3.368e-04
8.527e-01,3.754e-04
8.541e-01,4.185e-04
8.555e-01,4.666e-04
8.569e-01,5.205e-04
8.583e-01,5.808e-04
8.597e-01,6.482e-04
8.611e-01,7.237e-04
8.625e-01,8.082e-04
8.639e-01,9.029e-04
8.653e-01,1.009e-03
8.666e-01,1.128e-03
8.680e-01,1.261e-03
8.694e-01,1.411e-03
8.708e-01,1.579e-03
8.722e-01,1.768e-03
8.736e-01,1.980e-03
8.750e-01,2.218e-03
8.764e-01,2.486e-03
8.778e-01,2.787e-03
8.792e-01,3.126e-03
8.806e-01,3.508e-03
8.820e-01,3.938e-03
8.834e-01,4.424e-03
8.848e-01,4.971e-03
8.862e-01,5.588e-03
8.876e-01,6.286e-03
8.890e-01,7.073e-03
8.904e-01,7.964e-03
8.918e-01,8.972e-03
8.932e-01,1.011e-02
8.946e-01,1.140e-02
8.960e-01,1.287e-02
8.974e-01,1.453e-02
8.988e-01,1.642e-02
9.002e-01,1.856e-02
9.016e-01,2.100e-02
9.030e-01,2.377e-02
9.043e-01,2.692e-02
9.057e-01,3.052e-02
9.071e-01,3.463e-02
9.085e-01,3.931e-02
9.099e-01,4.467e-02
9.113e-01,5.080e-02
9.127e-01,5.782e-02
9.141e-01,6.586e-02
9.155e-01,7.510e-02
9.169e-01,8.572e-02
9.183e-01,9.793e-02
9.197e-01,1.120e-01
9.211e-01,1.282e-01
9.225e-01,1.470e-01
9.239e-01,1.687e-01
9.253e-01,1.938e-01
9.267e-01,2.229e-01
9.281e-01,2.568e-01
9.295e-01,2.963e-01
9.309e-01,3.423e-01
9.323e-01,3.961e-01
9.337e-01,4.591e-01
9.351e-01,5.331e-01
9.365e-01,6.201e-01
9.379e-01,7.228e-01
9.393e-01,8.442e-01
9.407e-01,9.882e-01
9.421e-01,1.160e+00
9.434e-01,1.364e+00
9.448e-01,1.609e+00
9.462e-01,1.904e+00
9.476e-01,2.259e+00
9.490e-01,2.691e+00
9.504e-01,3.217e+00
9.518e-01,3.863e+00
9.532e-01,4.660e+00
9.546e-01,5.650e+00
9.560e-01,6.892e+00
9.574e-01,8.462e+00
9.588e-01,1.047e+01
9.602e-01,1.307e+01
9.616e-01,1.650e+01
9.630e-01,2.110e+01
9.644e-01,2.743e+01
9.658e-01,3.644e+01
9.672e-01,4.989e+01
9.686e-01,7.151e+01
9.700e-01,1.114e+02
9.714e-01,2.173e+02
9.728e-01,0.000e+00
9.742e-01,0.000e+00
9.756e-01,0.000e+00
9.770e-01,0.000e+00
9.784e-01,0.000e+00
9.798e-01,0.000e+00
9.811e-01,0.000e+00
9.825e-01,0.000e+00
9.839e-01,0.000e+00
9.853e-01,0.000e+00
9.867e-01,0.000e+00
9.881e-01,0.000e+00
9.895e-01,0.000e+00
9.909e-01,0.000e+00
9.923e-01,0.000e+00
9.937e-01,0.000e+00
9.951e-01,0.000e+00
9.965e-01,0.000e+00
9.979e-01,0.000e+00
9.993e-01,0.000e+00
