transmittance,probability_density
6.935e-01,2.798e-08
6.950e-01,3.102e-08
6.966e-01,3.439e-08
6.981e-01,3.812e-08
6.996e-01,4.227e-08
7.012e-01,4.686e-08
7.027e-01,5.195e-08
7.042e-01,5.759e-08
7.058e-01,6.384e-08
7.073e-01,7.078e-08
7.089e-01,7.846e-08
7.104e-01,8.698e-08
7.119e-01,9.642e-08
7.135e-01,1.069e-07
7.150e-01,1.185e-07
7.165e-01,1.314e-07
7.181e-01,1.456e-07
7.196e-01,1.614e-07
7.211e-01,1.790e-07
7.227e-01,1.984e-07
7.242e-01,2.200e-07
7.258e-01,2.439e-07
7.273e-01,2.703e-07
7.288e-01,2.997e-07
7.304e-01,3.323e-07
7.319e-01,3.684e-07
7.334e-01,4.085e-07
7.350e-01,4.529e-07
7.365e-01,5.022e-07
7.380e-01,5.568e-07
7.396e-01,6.174e-07
7.411e-01,6.846e-07
7.427e-01,7.592e-07
7.442e-01,8.419e-07
7.457e-01,9.337e-07
7.473e-01,1.035e-06
7.488e-01,1.148e-06
7.503e-01,1.274e-06
7.519e-01,1.413e-06
7.534e-01,1.567e-06
7.549e-01,1.738e-06
7.565e-01,1.928e-06
7.580e-01,2.139e-06
7.596e-01,2.374e-06
7.611e-01,2.633e-06
7.626e-01,2.922e-06
7.642e-01,3.242e-06
7.657e-01,3.598e-06
7.672e-01,3.993e-06
7.688e-01,4.432e-06
7.703e-01,4.919e-06
7.718e-01,5.461e-06
7.734e-01,6.062e-06
7.749e-01,6.730e-06
7.765e-01,7.472e-06
7.780e-01,8.297e-06
7.795e-01,9.214e-06
7.811e-01,1.023e-05
7.826e-01,1.137e-05
7.841e-01,1.263e-05
7.857e-01,1.403e-05
7.872e-01,1.558e-05
7.887e-01,1.731e-05
7.903e-01,1.924e-05
7.918e-01,2.138e-05
7.934e-01,2.377e-05
7.949e-01,2.642e-05
7.964e-01,2.937e-05
7.980e-01,3.266e-05
7.995e-01,3.632e-05
8.010e-01,4.039e-05
8.026e-01,4.493e-05
8.041e-01,4.998e-05
8.056e-01,5.561e-05
8.072e-01,6.188e-05
8.087e-01,6.887e-05
8.103e-01,7.666e-05
8.118e-01,8.535e-05
8.133e-01,9.503e-05
8.149e-01,1.058e-04
8.164e-01,1.179e-04
8.179e-01,1.313e-04
8.195e-01,1.463e-04
8.210e-01,1.631e-04
8.226e-01,1.818e-04
8.241e-01,2.026e-04
8.256e-01,2.260e-04
8.272e-01,2.520e-04
8.287e-01,2.811e-04
8.302e-01,3.136e-04
8.318e-01,3.500e-04
8.333e-01,3.907e-04
8.348e-01,4.362e-04
8.364e-01,4.871e-04
8.379e-01,5.441e-04
8.394e-01,6.079e-04
8.410e-01,6.794e-04
8.425e-01,7.595e-04
8.441e-01,8.492e-04
8.456e-01,9.497e-04
8.471e-01,1.063e-03
8.487e-01,1.189e-03
8.502e-01,1.331e-03
8.517e-01,1.490e-03
8.533e-01,1.669e-03
8.548e-01,1.870e-03
8.563e-01,2.096e-03
8.579e-01,2.350e-03
8.594e-01,2.636e-03
8.610e-01,2.957e-03
8.625e-01,3.319e-03
8.640e-01,3.726e-03
8.656e-01,4.185e-03
8.671e-01,4.702e-03
8.686e-01,5.285e-03
8.702e-01,5.944e-03
8.717e-01,6.686e-03
8.732e-01,7.525e-03
8.748e-01,8.474e-03
8.763e-01,9.546e-03
8.779e-01,1.076e-02
8.794e-01,1.213e-02
8.809e-01,1.369e-02
8.825e-01,1.545e-02
8.840e-01,1.745e-02
8.855e-01,1.971e-02
8.871e-01,2.229e-02
8.886e-01,2.522e-02
8.901e-01,2.855e-02
8.917e-01,3.234e-02
8.932e-01,3.665e-02
8.948e-01,4.157e-02
8.963e-01,4.719e-02
8.978e-01,5.360e-02
8.994e-01,6.092e-02
9.009e-01,6.931e-02
9.024e-01,7.891e-02
9.040e-01,8.992e-02
9.055e-01,1.026e-01
9.071e-01,1.171e-01
9.086e-01,1.338e-01
9.101e-01,1.530e-01
9.117e-01,1.752e-01
9.132e-01,2.008e-01
9.147e-01,2.304e-01
9.163e-01,2.647e-01
9.178e-01,3.045e-01
9.193e-01,3.508e-01
9.209e-01,4.046e-01
9.224e-01,4.673e-01
9.240e-01,5.406e-01
9.255e-01,6.265e-01
9.270e-01,7.272e-01
9.286e-01,8.456e-01
9.301e-01,9.852e-01
9.316e-01,1.150e+00
9.332e-01,1.346e+00
9.347e-01,1.579e+00
9.362e-01,1.857e+00
9.378e-01,2.189e+00
9.393e-01,2.590e+00
9.408e-01,3.073e+00
9.424e-01,3.660e+00
9.439e-01,4.377e+00
9.455e-01,5.257e+00
9.470e-01,6.345e+00
9.485e-01,7.702e+00
9.501e-01,9.408e+00
9.516e-01,1.158e+01
9.531e-01,1.438e+01
9.547e-01,1.804e+01
9.562e-01,2.293e+01
9.577e-01,2.962e+01
9.593e-01,3.913e+01
9.608e-01,5.335e+01
9.624e-01,7.652e+01
9.639e-01,1.214e+02
9.654e-01,2.932e+02
9.670e-01,0.000e+00
9.685e-01,0.000e+00
9.700e-01,0.000e+00
9.716e-01,0.000e+00
9.731e-01,0.000e+00
9.747e-01,0.000e+00
9.762e-01,0.000e+00
9.777e-01,0.000e+00
9.793e-01,0.000e+00
9.808e-01,0.000e+00
9.823e-01,0.000e+00
9.839e-01,0.000e+00
9.854e-01,0.000e+00
9.869e-01,0.000e+00
9.885e-01,0.000e+00
9.900e-01,0.000e+00
9.916e-01,0.000e+00
9.931e-01,0.000e+00
9.946e-01,0.000e+00
9.962e-01,0.000e+00
9.977e-01,0.000e+00
9.992e-01,0.000e+00
