transmittance,probability_density
7.835e-01,8.938e-09
7.845e-01,9.778e-09
7.856e-01,1.070e-08
7.867e-01,1.171e-08
7.878e-01,1.281e-08
7.889e-01,1.402e-08
7.900e-01,1.535e-08
7.910e-01,1.680e-08
7.921e-01,1.839e-08
7.932e-01,2.013e-08
7.943e-01,2.204e-08
7.954e-01,2.414e-08
7.965e-01,2.643e-08
7.976e-01,2.895e-08
7.986e-01,3.171e-08
7.997e-01,3.473e-08
8.008e-01,3.805e-08
8.019e-01,4.169e-08
8.030e-01,4.569e-08
8.041e-01,5.007e-08
8.052e-01,5.487e-08
8.062e-01,6.015e-08
8.073e-01,6.594e-08
8.084e-01,7.229e-08
8.095e-01,7.926e-08
8.106e-01,8.692e-08
8.117e-01,9.533e-08
8.128e-01,1.046e-07
8.138e-01,1.147e-07
8.149e-01,1.258e-07
8.160e-01,1.381e-07
8.171e-01,1.515e-07
8.182e-01,1.663e-07
8.193e-01,1.826e-07
8.204e-01,2.004e-07
8.214e-01,2.200e-07
8.225e-01,2.416e-07
8.236e-01,2.654e-07
8.247e-01,2.915e-07
8.258e-01,3.202e-07
8.269e-01,3.518e-07
8.280e-01,3.866e-07
8.290e-01,4.249e-07
8.301e-01,4.671e-07
8.312e-01,5.135e-07
8.323e-01,5.646e-07
8.334e-01,6.209e-07
8.345e-01,6.829e-07
8.356e-01,7.512e-07
8.366e-01,8.265e-07
8.377e-01,9.095e-07
8.388e-01,1.001e-06
8.399e-01,1.102e-06
8.410e-01,1.213e-06
8.421e-01,1.336e-06
8.432e-01,1.471e-06
8.442e-01,1.621e-06
8.453e-01,1.785e-06
8.464e-01,1.968e-06
8.475e-01,2.169e-06
8.486e-01,2.390e-06
8.497e-01,2.636e-06
8.507e-01,2.907e-06
8.518e-01,3.206e-06
8.529e-01,3.537e-06
8.540e-01,3.903e-06
8.551e-01,4.308e-06
8.562e-01,4.756e-06
8.573e-01,5.251e-06
8.583e-01,5.799e-06
8.594e-01,6.406e-06
8.605e-01,7.078e-06
8.616e-01,7.822e-06
8.627e-01,8.647e-06
8.638e-01,9.561e-06
8.649e-01,1.057e-05
8.659e-01,1.170e-05
8.670e-01,1.294e-05
8.681e-01,1.432e-05
8.692e-01,1.586e-05
8.703e-01,1.756e-05
8.714e-01,1.945e-05
8.725e-01,2.155e-05
8.735e-01,2.388e-05
8.746e-01,2.647e-05
8.757e-01,2.935e-05
8.768e-01,3.256e-05
8.779e-01,3.612e-05
8.790e-01,4.009e-05
8.801e-01,4.451e-05
8.811e-01,4.943e-05
8.822e-01,5.491e-05
8.833e-01,6.101e-05
8.844e-01,6.782e-05
8.855e-01,7.541e-05
8.866e-01,8.388e-05
8.877e-01,9.334e-05
8.887e-01,1.039e-04
8.898e-01,1.157e-04
8.909e-01,1.289e-04
8.920e-01,1.436e-04
8.931e-01,1.601e-04
8.942e-01,1.785e-04
8.953e-01,1.991e-04
8.963e-01,2.223e-04
8.974e-01,2.482e-04
8.985e-01,2.772e-04
8.996e-01,3.098e-04
9.007e-01,3.463e-04
9.018e-01,3.873e-04
9.029e-01,4.334e-04
9.039e-01,4.852e-04
9.050e-01,5.434e-04
9.061e-01,6.089e-04
9.072e-01,6.826e-04
9.083e-01,7.657e-04
9.094e-01,8.593e-04
9.104e-01,9.648e-04
9.115e-01,1.084e-03
9.126e-01,1.218e-03
9.137e-01,1.370e-03
9.148e-01,1.542e-03
9.159e-01,1.737e-03
9.170e-01,1.957e-03
9.180e-01,2.206e-03
9.191e-01,2.489e-03
9.202e-01,2.810e-03
9.213e-01,3.174e-03
9.224e-01,3.588e-03
9.235e-01,4.059e-03
9.246e-01,4.595e-03
9.256e-01,5.206e-03
9.267e-01,5.903e-03
9.278e-01,6.698e-03
9.289e-01,7.607e-03
9.300e-01,8.646e-03
9.311e-01,9.836e-03
9.322e-01,1.120e-02
9.332e-01,1.276e-02
9.343e-01,1.456e-02
9.354e-01,1.663e-02
9.365e-01,1.901e-02
9.376e-01,2.175e-02
9.387e-01,2.491e-02
9.398e-01,2.857e-02
9.408e-01,3.281e-02
9.419e-01,3.771e-02
9.430e-01,4.341e-02
9.441e-01,5.003e-02
9.452e-01,5.775e-02
9.463e-01,6.674e-02
9.474e-01,7.726e-02
9.484e-01,8.956e-02
9.495e-01,1.040e-01
9.506e-01,1.210e-01
9.517e-01,1.410e-01
9.528e-01,1.646e-01
9.539e-01,1.925e-01
9.550e-01,2.256e-01
9.560e-01,2.650e-01
9.571e-01,3.121e-01
9.582e-01,3.683e-01
9.593e-01,4.359e-01
9.604e-01,5.172e-01
9.615e-01,6.155e-01
9.626e-01,7.349e-01
9.636e-01,8.803e-01
9.647e-01,1.058e+00
9.658e-01,1.277e+00
9.669e-01,1.548e+00
9.680e-01,1.886e+00
9.691e-01,2.308e+00
9.701e-01,2.841e+00
9.712e-01,3.520e+00
9.723e-01,4.391e+00
9.734e-01,5.521e+00
9.745e-01,7.006e+00
9.756e-01,8.983e+00
9.767e-01,1.166e+01
9.777e-01,1.537e+01
9.788e-01,2.062e+01
9.799e-01,2.833e+01
9.810e-01,4.015e+01
9.821e-01,5.947e+01
9.832e-01,9.451e+01
9.843e-01,1.724e+02
9.853e-01,5.298e+02
9.864e-01,0.000e+00
9.875e-01,0.000e+00
9.886e-01,0.000e+00
9.897e-01,0.000e+00
9.908e-01,0.000e+00
9.919e-01,0.000e+00
9.929e-01,0.000e+00
9.940e-01,0.000e+00
9.951e-01,0.000e+00
9.962e-01,0.000e+00
9.973e-01,0.000e+00
9.984e-01,0.000e+00
9.995e-01,0.000e+00
