transmittance,probability_density
1.286e-03,2.522e-08
3.857e-03,1.731e-06
6.428e-03,1.238e-05
8.999e-03,4.522e-05
1.157e-02,1.191e-04
1.414e-02,2.579e-04
1.671e-02,4.908e-04
1.928e-02,8.519e-04
2.186e-02,1.380e-03
2.443e-02,2.118e-03
2.700e-02,3.115e-03
2.957e-02,4.423e-03
3.214e-02,6.099e-03
3.471e-02,8.205e-03
3.728e-02,1.081e-02
3.985e-02,1.397e-02
4.243e-02,1.778e-02
4.500e-02,2.231e-02
4.757e-02,2.764e-02
5.014e-02,3.386e-02
5.271e-02,4.106e-02
5.528e-02,4.934e-02
5.785e-02,5.879e-02
6.042e-02,6.952e-02
6.300e-02,8.164e-02
6.557e-02,9.526e-02
6.814e-02,1.105e-01
7.071e-02,1.275e-01
7.328e-02,1.463e-01
7.585e-02,1.671e-01
7.842e-02,1.900e-01
8.099e-02,2.152e-01
8.357e-02,2.428e-01
8.614e-02,2.729e-01
8.871e-02,3.057e-01
9.128e-02,3.413e-01
9.385e-02,3.799e-01
9.642e-02,4.217e-01
9.899e-02,4.668e-01
1.016e-01,5.153e-01
1.041e-01,5.675e-01
1.067e-01,6.235e-01
1.093e-01,6.836e-01
1.118e-01,7.477e-01
1.144e-01,8.163e-01
1.170e-01,8.894e-01
1.196e-01,9.673e-01
1.221e-01,1.050e+00
1.247e-01,1.138e+00
1.273e-01,1.231e+00
1.298e-01,1.330e+00
1.324e-01,1.435e+00
1.350e-01,1.545e+00
1.376e-01,1.662e+00
1.401e-01,1.785e+00
1.427e-01,1.915e+00
1.453e-01,2.052e+00
1.478e-01,2.196e+00
1.504e-01,2.347e+00
1.530e-01,2.506e+00
1.556e-01,2.673e+00
1.581e-01,2.847e+00
1.607e-01,3.030e+00
1.633e-01,3.222e+00
1.658e-01,3.422e+00
1.684e-01,3.632e+00
1.710e-01,3.851e+00
1.736e-01,4.080e+00
1.761e-01,4.318e+00
1.787e-01,4.567e+00
1.813e-01,4.827e+00
1.838e-01,5.097e+00
1.864e-01,5.378e+00
1.890e-01,5.670e+00
1.916e-01,5.975e+00
1.941e-01,6.291e+00
1.967e-01,6.619e+00
1.993e-01,6.960e+00
2.018e-01,7.314e+00
2.044e-01,7.681e+00
2.070e-01,8.062e+00
2.096e-01,8.457e+00
2.121e-01,8.865e+00
2.147e-01,9.289e+00
2.173e-01,9.727e+00
2.198e-01,1.018e+01
2.224e-01,1.065e+01
2.250e-01,1.113e+01
2.276e-01,1.164e+01
2.301e-01,1.215e+01
2.327e-01,1.269e+01
2.353e-01,1.324e+01
2.378e-01,1.381e+01
2.404e-01,1.440e+01
2.430e-01,1.501e+01
2.456e-01,1.564e+01
2.481e-01,1.629e+01
2.507e-01,1.696e+01
2.533e-01,1.765e+01
2.558e-01,1.837e+01
2.584e-01,0.000e+00
2.610e-01,0.000e+00
2.636e-01,0.000e+00
2.661e-01,0.000e+00
2.687e-01,0.000e+00
2.713e-01,0.000e+00
2.738e-01,0.000e+00
2.764e-01,0.000e+00
2.790e-01,0.000e+00
2.816e-01,0.000e+00
2.841e-01,0.000e+00
2.867e-01,0.000e+00
2.893e-01,0.000e+00
2.918e-01,0.000e+00
2.944e-01,0.000e+00
2.970e-01,0.000e+00
2.996e-01,0.000e+00
3.021e-01,0.000e+00
3.047e-01,0.000e+00
3.073e-01,0.000e+00
3.098e-01,0.000e+00
3.124e-01,0.000e+00
3.150e-01,0.000e+00
3.175e-01,0.000e+00
3.201e-01,0.000e+00
3.227e-01,0.000e+00
3.253e-01,0.000e+00
3.278e-01,0.000e+00
3.304e-01,0.000e+00
3.330e-01,0.000e+00
3.355e-01,0.000e+00
3.381e-01,0.000e+00
3.407e-01,0.000e+00
3.433e-01,0.000e+00
3.458e-01,0.000e+00
3.484e-01,0.000e+00
3.510e-01,0.000e+00
3.535e-01,0.000e+00
3.561e-01,0.000e+00
3.587e-01,0.000e+00
3.613e-01,0.000e+00
3.638e-01,0.000e+00
3.664e-01,0.000e+00
3.690e-01,0.000e+00
3.715e-01,0.000e+00
3.741e-01,0.000e+00
3.767e-01,0.000e+00
3.793e-01,0.000e+00
3.818e-01,0.000e+00
3.844e-01,0.000e+00
3.870e-01,0.000e+00
3.895e-01,0.000e+00
3.921e-01,0.000e+00
3.947e-01,0.000e+00
3.973e-01,0.000e+00
3.998e-01,0.000e+00
4.024e-01,0.000e+00
4.050e-01,0.000e+00
4.075e-01,0.000e+00
4.101e-01,0.000e+00
4.127e-01,0.000e+00
4.153e-01,0.000e+00
4.178e-01,0.000e+00
4.204e-01,0.000e+00
4.230e-01,0.000e+00
4.255e-01,0.000e+00
4.281e-01,0.000e+00
4.307e-01,0.000e+00
4.333e-01,0.000e+00
4.358e-01,0.000e+00
4.384e-01,0.000e+00
4.410e-01,0.000e+00
4.435e-01,0.000e+00
4.461e-01,0.000e+00
4.487e-01,0.000e+00
4.513e-01,0.000e+00
4.538e-01,0.000e+00
4.564e-01,0.000e+00
4.590e-01,0.000e+00
4.615e-01,0.000e+00
4.641e-01,0.000e+00
4.667e-01,0.000e+00
4.693e-01,0.000e+00
4.718e-01,0.000e+00
4.744e-01,0.000e+00
4.770e-01,0.000e+00
4.795e-01,0.000e+00
4.821e-01,0.000e+00
4.847e-01,0.000e+00
4.873e-01,0.000e+00
4.898e-01,0.000e+00
4.924e-01,0.000e+00
4.950e-01,0.000e+00
4.975e-01,0.000e+00
5.001e-01,0.000e+00
5.027e-01,0.000e+00
5.053e-01,0.000e+00
5.078e-01,0.000e+00
5.104e-01,0.000e+00
5.130e-01,0.000e+00
