transmittance,probability_density
1.084e-03,9.222e-08
3.251e-03,5.306e-06
5.418e-03,3.493e-05
7.585e-03,1.209e-04
9.752e-03,3.055e-04
1.192e-02,6.406e-04
1.409e-02,1.187e-03
1.625e-02,2.012e-03
1.842e-02,3.193e-03
2.059e-02,4.814e-03
2.275e-02,6.965e-03
2.492e-02,9.743e-03
2.709e-02,1.325e-02
2.925e-02,1.761e-02
3.142e-02,2.292e-02
3.359e-02,2.932e-02
3.576e-02,3.693e-02
3.792e-02,4.589e-02
4.009e-02,5.634e-02
4.226e-02,6.842e-02
4.442e-02,8.229e-02
4.659e-02,9.811e-02
4.876e-02,1.160e-01
5.092e-02,1.362e-01
5.309e-02,1.589e-01
5.526e-02,1.842e-01
5.743e-02,2.123e-01
5.959e-02,2.434e-01
6.176e-02,2.777e-01
6.393e-02,3.154e-01
6.609e-02,3.567e-01
6.826e-02,4.019e-01
7.043e-02,4.510e-01
7.259e-02,5.044e-01
7.476e-02,5.623e-01
7.693e-02,6.249e-01
7.910e-02,6.924e-01
8.126e-02,7.651e-01
8.343e-02,8.432e-01
8.560e-02,9.269e-01
8.776e-02,1.017e+00
8.993e-02,1.112e+00
9.210e-02,1.215e+00
9.426e-02,1.324e+00
9.643e-02,1.439e+00
9.860e-02,1.563e+00
1.008e-01,1.693e+00
1.029e-01,1.832e+00
1.051e-01,1.978e+00
1.073e-01,2.133e+00
1.094e-01,2.297e+00
1.116e-01,2.469e+00
1.138e-01,2.651e+00
1.159e-01,2.842e+00
1.181e-01,3.044e+00
1.203e-01,3.255e+00
1.224e-01,3.477e+00
1.246e-01,3.710e+00
1.268e-01,3.954e+00
1.289e-01,4.210e+00
1.311e-01,4.477e+00
1.333e-01,4.757e+00
1.354e-01,5.049e+00
1.376e-01,5.354e+00
1.398e-01,5.672e+00
1.419e-01,6.004e+00
1.441e-01,6.350e+00
1.463e-01,6.710e+00
1.484e-01,7.084e+00
1.506e-01,7.474e+00
1.528e-01,7.880e+00
1.549e-01,8.301e+00
1.571e-01,8.738e+00
1.593e-01,9.192e+00
1.614e-01,9.663e+00
1.636e-01,1.015e+01
1.658e-01,1.066e+01
1.679e-01,1.118e+01
1.701e-01,1.172e+01
1.723e-01,1.229e+01
1.744e-01,1.287e+01
1.766e-01,1.347e+01
1.788e-01,1.409e+01
1.809e-01,1.473e+01
1.831e-01,1.540e+01
1.853e-01,1.608e+01
1.874e-01,1.679e+01
1.896e-01,1.752e+01
1.918e-01,1.827e+01
1.939e-01,1.905e+01
1.961e-01,1.985e+01
1.983e-01,2.068e+01
2.004e-01,2.153e+01
2.026e-01,2.242e+01
2.048e-01,0.000e+00
2.069e-01,0.000e+00
2.091e-01,0.000e+00
2.113e-01,0.000e+00
2.134e-01,0.000e+00
2.156e-01,0.000e+00
2.178e-01,0.000e+00
2.200e-01,0.000e+00
2.221e-01,0.000e+00
2.243e-01,0.000e+00
2.265e-01,0.000e+00
2.286e-01,0.000e+00
2.308e-01,0.000e+00
2.330e-01,0.000e+00
2.351e-01,0.000e+00
2.373e-01,0.000e+00
2.395e-01,0.000e+00
2.416e-01,0.000e+00
2.438e-01,0.000e+00
2.460e-01,0.000e+00
2.481e-01,0.000e+00
2.503e-01,0.000e+00
2.525e-01,0.000e+00
2.546e-01,0.000e+00
2.568e-01,0.000e+00
2.590e-01,0.000e+00
2.611e-01,0.000e+00
2.633e-01,0.000e+00
2.655e-01,0.000e+00
2.676e-01,0.000e+00
2.698e-01,0.000e+00
2.720e-01,0.000e+00
2.741e-01,0.000e+00
2.763e-01,0.000e+00
2.785e-01,0.000e+00
2.806e-01,0.000e+00
2.828e-01,0.000e+00
2.850e-01,0.000e+00
2.871e-01,0.000e+00
2.893e-01,0.000e+00
2.915e-01,0.000e+00
2.936e-01,0.000e+00
2.958e-01,0.000e+00
2.980e-01,0.000e+00
3.001e-01,0.000e+00
3.023e-01,0.000e+00
3.045e-01,0.000e+00
3.066e-01,0.000e+00
3.088e-01,0.000e+00
3.110e-01,0.000e+00
3.131e-01,0.000e+00
3.153e-01,0.000e+00
3.175e-01,0.000e+00
3.196e-01,0.000e+00
3.218e-01,0.000e+00
3.240e-01,0.000e+00
3.261e-01,0.000e+00
3.283e-01,0.000e+00
3.305e-01,0.000e+00
3.326e-01,0.000e+00
3.348e-01,0.000e+00
3.370e-01,0.000e+00
3.391e-01,0.000e+00
3.413e-01,0.000e+00
3.435e-01,0.000e+00
3.456e-01,0.000e+00
3.478e-01,0.000e+00
3.500e-01,0.000e+00
3.521e-01,0.000e+00
3.543e-01,0.000e+00
3.565e-01,0.000e+00
3.586e-01,0.000e+00
3.608e-01,0.000e+00
3.630e-01,0.000e+00
3.651e-01,0.000e+00
3.673e-01,0.000e+00
3.695e-01,0.000e+00
3.716e-01,0.000e+00
3.738e-01,0.000e+00
3.760e-01,0.000e+00
3.781e-01,0.000e+00
3.803e-01,0.000e+00
3.825e-01,0.000e+00
3.846e-01,0.000e+00
3.868e-01,0.000e+00
3.890e-01,0.000e+00
3.911e-01,0.000e+00
3.933e-01,0.000e+00
3.955e-01,0.000e+00
3.976e-01,0.000e+00
3.998e-01,0.000e+00
4.020e-01,0.000e+00
4.041e-01,0.000e+00
4.063e-01,0.000e+00
4.085e-01,0.000e+00
4.106e-01,0.000e+00
4.128e-01,0.000e+00
4.150e-01,0.000e+00
4.171e-01,0.000e+00
4.193e-01,0.000e+00
4.215e-01,0.000e+00
4.236e-01,0.000e+00
4.258e-01,0.000e+00
4.280e-01,0.000e+00
4.301e-01,0.000e+00
4.323e-01,0.000e+00
