transmittance,probability_density
1.687e-03,1.515e-09
5.062e-03,1.588e-07
8.437e-03,1.385e-06
1.181e-02,5.769e-06
1.519e-02,1.676e-05
1.856e-02,3.928e-05
2.194e-02,7.983e-05
2.531e-02,1.466e-04
2.869e-02,2.495e-04
3.206e-02,4.002e-04
3.544e-02,6.124e-04
3.881e-02,9.016e-04
4.219e-02,1.285e-03
4.556e-02,1.783e-03
4.893e-02,2.416e-03
5.231e-02,3.209e-03
5.568e-02,4.187e-03
5.906e-02,5.378e-03
6.243e-02,6.813e-03
6.581e-02,8.525e-03
6.918e-02,1.055e-02
7.256e-02,1.292e-02
7.593e-02,1.568e-02
7.931e-02,1.887e-02
8.268e-02,2.254e-02
8.606e-02,2.672e-02
8.943e-02,3.149e-02
9.281e-02,3.687e-02
9.618e-02,4.293e-02
9.956e-02,4.973e-02
1.029e-01,5.733e-02
1.063e-01,6.579e-02
1.097e-01,7.517e-02
1.131e-01,8.554e-02
1.164e-01,9.698e-02
1.198e-01,1.096e-01
1.232e-01,1.233e-01
1.266e-01,1.384e-01
1.299e-01,1.549e-01
1.333e-01,1.728e-01
1.367e-01,1.923e-01
1.401e-01,2.134e-01
1.434e-01,2.362e-01
1.468e-01,2.609e-01
1.502e-01,2.875e-01
1.536e-01,3.162e-01
1.569e-01,3.469e-01
1.603e-01,3.800e-01
1.637e-01,4.154e-01
1.671e-01,4.533e-01
1.704e-01,4.937e-01
1.738e-01,5.369e-01
1.772e-01,5.830e-01
1.806e-01,6.320e-01
1.839e-01,6.841e-01
1.873e-01,7.394e-01
1.907e-01,7.982e-01
1.941e-01,8.604e-01
1.974e-01,9.264e-01
2.008e-01,9.961e-01
2.042e-01,1.070e+00
2.076e-01,1.148e+00
2.109e-01,1.230e+00
2.143e-01,1.316e+00
2.177e-01,1.408e+00
2.210e-01,1.503e+00
2.244e-01,1.604e+00
2.278e-01,1.710e+00
2.312e-01,1.822e+00
2.345e-01,1.939e+00
2.379e-01,2.061e+00
2.413e-01,2.190e+00
2.447e-01,2.324e+00
2.480e-01,2.465e+00
2.514e-01,2.613e+00
2.548e-01,2.767e+00
2.582e-01,2.928e+00
2.615e-01,3.096e+00
2.649e-01,3.271e+00
2.683e-01,3.454e+00
2.717e-01,3.645e+00
2.750e-01,3.844e+00
2.784e-01,4.051e+00
2.818e-01,4.267e+00
2.852e-01,4.491e+00
2.885e-01,4.725e+00
2.919e-01,4.968e+00
2.953e-01,5.220e+00
2.987e-01,5.482e+00
3.020e-01,5.755e+00
3.054e-01,6.038e+00
3.088e-01,6.331e+00
3.122e-01,6.636e+00
3.155e-01,6.952e+00
3.189e-01,7.280e+00
3.223e-01,7.619e+00
3.257e-01,7.971e+00
3.290e-01,8.336e+00
3.324e-01,8.714e+00
3.358e-01,9.105e+00
3.392e-01,9.510e+00
3.425e-01,9.930e+00
3.459e-01,1.036e+01
3.493e-01,1.081e+01
3.527e-01,1.128e+01
3.560e-01,1.177e+01
3.594e-01,1.227e+01
3.628e-01,1.279e+01
3.662e-01,1.334e+01
3.695e-01,1.392e+01
3.729e-01,0.000e+00
3.763e-01,0.000e+00
3.797e-01,0.000e+00
3.830e-01,0.000e+00
3.864e-01,0.000e+00
3.898e-01,0.000e+00
3.932e-01,0.000e+00
3.965e-01,0.000e+00
3.999e-01,0.000e+00
4.033e-01,0.000e+00
4.067e-01,0.000e+00
4.100e-01,0.000e+00
4.134e-01,0.000e+00
4.168e-01,0.000e+00
4.202e-01,0.000e+00
4.235e-01,0.000e+00
4.269e-01,0.000e+00
4.303e-01,0.000e+00
4.337e-01,0.000e+00
4.370e-01,0.000e+00
4.404e-01,0.000e+00
4.438e-01,0.000e+00
4.472e-01,0.000e+00
4.505e-01,0.000e+00
4.539e-01,0.000e+00
4.573e-01,0.000e+00
4.607e-01,0.000e+00
4.640e-01,0.000e+00
4.674e-01,0.000e+00
4.708e-01,0.000e+00
4.742e-01,0.000e+00
4.775e-01,0.000e+00
4.809e-01,0.000e+00
4.843e-01,0.000e+00
4.877e-01,0.000e+00
4.910e-01,0.000e+00
4.944e-01,0.000e+00
4.978e-01,0.000e+00
5.012e-01,0.000e+00
5.045e-01,0.000e+00
5.079e-01,0.000e+00
5.113e-01,0.000e+00
5.147e-01,0.000e+00
5.180e-01,0.000e+00
5.214e-01,0.000e+00
5.248e-01,0.000e+00
5.282e-01,0.000e+00
5.315e-01,0.000e+00
5.349e-01,0.000e+00
5.383e-01,0.000e+00
5.417e-01,0.000e+00
5.450e-01,0.000e+00
5.484e-01,0.000e+00
5.518e-01,0.000e+00
5.552e-01,0.000e+00
5.585e-01,0.000e+00
5.619e-01,0.000e+00
5.653e-01,0.000e+00
5.687e-01,0.000e+00
5.720e-01,0.000e+00
5.754e-01,0.000e+00
5.788e-01,0.000e+00
5.822e-01,0.000e+00
5.855e-01,0.000e+00
5.889e-01,0.000e+00
5.923e-01,0.000e+00
5.957e-01,0.000e+00
5.990e-01,0.000e+00
6.024e-01,0.000e+00
6.058e-01,0.000e+00
6.092e-01,0.000e+00
6.125e-01,0.000e+00
6.159e-01,0.000e+00
6.193e-01,0.000e+00
6.227e-01,0.000e+00
6.260e-01,0.000e+00
6.294e-01,0.000e+00
6.328e-01,0.000e+00
6.361e-01,0.000e+00
6.395e-01,0.000e+00
6.429e-01,0.000e+00
6.463e-01,0.000e+00
6.496e-01,0.000e+00
6.530e-01,0.000e+00
6.564e-01,0.000e+00
6.598e-01,0.000e+00
6.631e-01,0.000e+00
6.665e-01,0.000e+00
6.699e-01,0.000e+00
6.733e-01,0.000e+00
