transmittance,probability_density
1.068e-04,1.400e-05
3.204e-04,4.833e-04
5.341e-04,2.508e-03
7.477e-04,7.418e-03
9.613e-04,1.668e-02
1.175e-03,3.185e-02
1.389e-03,5.456e-02
1.602e-03,8.654e-02
1.816e-03,1.296e-01
2.029e-03,1.854e-01
2.243e-03,2.560e-01
2.457e-03,3.433e-01
2.670e-03,4.491e-01
2.884e-03,5.756e-01
3.097e-03,7.246e-01
3.311e-03,8.984e-01
3.525e-03,1.099e+00
3.738e-03,1.329e+00
3.952e-03,1.589e+00
4.166e-03,1.883e+00
4.379e-03,2.212e+00
4.593e-03,2.580e+00
4.806e-03,2.987e+00
5.020e-03,3.436e+00
5.234e-03,3.930e+00
5.447e-03,4.471e+00
5.661e-03,5.061e+00
5.875e-03,5.703e+00
6.088e-03,6.399e+00
6.302e-03,7.151e+00
6.515e-03,7.963e+00
6.729e-03,8.835e+00
6.943e-03,9.772e+00
7.156e-03,1.077e+01
7.370e-03,1.185e+01
7.584e-03,1.299e+01
7.797e-03,1.421e+01
8.011e-03,1.550e+01
8.224e-03,1.687e+01
8.438e-03,1.832e+01
8.652e-03,1.986e+01
8.865e-03,2.149e+01
9.079e-03,2.320e+01
9.292e-03,2.501e+01
9.506e-03,2.691e+01
9.720e-03,2.891e+01
9.933e-03,3.101e+01
1.015e-02,3.321e+01
1.036e-02,3.551e+01
1.057e-02,3.793e+01
1.079e-02,4.045e+01
1.100e-02,4.309e+01
1.122e-02,4.585e+01
1.143e-02,4.872e+01
1.164e-02,5.172e+01
1.186e-02,5.484e+01
1.207e-02,5.809e+01
1.228e-02,6.147e+01
1.250e-02,6.499e+01
1.271e-02,6.864e+01
1.292e-02,7.242e+01
1.314e-02,7.635e+01
1.335e-02,8.043e+01
1.356e-02,8.465e+01
1.378e-02,8.902e+01
1.399e-02,9.355e+01
1.421e-02,9.823e+01
1.442e-02,1.031e+02
1.463e-02,1.081e+02
1.485e-02,1.132e+02
1.506e-02,1.186e+02
1.527e-02,1.241e+02
1.549e-02,1.298e+02
1.570e-02,1.356e+02
1.591e-02,1.417e+02
1.613e-02,1.479e+02
1.634e-02,1.543e+02
1.656e-02,1.609e+02
1.677e-02,1.677e+02
1.698e-02,1.747e+02
1.720e-02,1.819e+02
1.741e-02,1.892e+02
1.762e-02,1.968e+02
1.784e-02,2.046e+02
1.805e-02,2.126e+02
1.826e-02,2.208e+02
1.848e-02,0.000e+00
1.869e-02,0.000e+00
1.891e-02,0.000e+00
1.912e-02,0.000e+00
1.933e-02,0.000e+00
1.955e-02,0.000e+00
1.976e-02,0.000e+00
1.997e-02,0.000e+00
2.019e-02,0.000e+00
2.040e-02,0.000e+00
2.061e-02,0.000e+00
2.083e-02,0.000e+00
2.104e-02,0.000e+00
2.126e-02,0.000e+00
2.147e-02,0.000e+00
2.168e-02,0.000e+00
2.190e-02,0.000e+00
2.211e-02,0.000e+00
2.232e-02,0.000e+00
2.254e-02,0.000e+00
2.275e-02,0.000e+00
2.296e-02,0.000e+00
2.318e-02,0.000e+00
2.339e-02,0.000e+00
2.361e-02,0.000e+00
2.382e-02,0.000e+00
2.403e-02,0.000e+00
2.425e-02,0.000e+00
2.446e-02,0.000e+00
2.467e-02,0.000e+00
2.489e-02,0.000e+00
2.510e-02,0.000e+00
2.531e-02,0.000e+00
2.553e-02,0.000e+00
2.574e-02,0.000e+00
2.595e-02,0.000e+00
2.617e-02,0.000e+00
2.638e-02,0.000e+00
2.660e-02,0.000e+00
2.681e-02,0.000e+00
2.702e-02,0.000e+00
2.724e-02,0.000e+00
2.745e-02,0.000e+00
2.766e-02,0.000e+00
2.788e-02,0.000e+00
2.809e-02,0.000e+00
2.830e-02,0.000e+00
2.852e-02,0.000e+00
2.873e-02,0.000e+00
2.895e-02,0.000e+00
2.916e-02,0.000e+00
2.937e-02,0.000e+00
2.959e-02,0.000e+00
2.980e-02,0.000e+00
3.001e-02,0.000e+00
3.023e-02,0.000e+00
3.044e-02,0.000e+00
3.065e-02,0.000e+00
3.087e-02,0.000e+00
3.108e-02,0.000e+00
3.130e-02,0.000e+00
3.151e-02,0.000e+00
3.172e-02,0.000e+00
3.194e-02,0.000e+00
3.215e-02,0.000e+00
3.236e-02,0.000e+00
3.258e-02,0.000e+00
3.279e-02,0.000e+00
3.300e-02,0.000e+00
3.322e-02,0.000e+00
3.343e-02,0.000e+00
3.365e-02,0.000e+00
3.386e-02,0.000e+00
3.407e-02,0.000e+00
3.429e-02,0.000e+00
3.450e-02,0.000e+00
3.471e-02,0.000e+00
3.493e-02,0.000e+00
3.514e-02,0.000e+00
3.535e-02,0.000e+00
3.557e-02,0.000e+00
3.578e-02,0.000e+00
3.599e-02,0.000e+00
3.621e-02,0.000e+00
3.642e-02,0.000e+00
3.664e-02,0.000e+00
3.685e-02,0.000e+00
3.706e-02,0.000e+00
3.728e-02,0.000e+00
3.749e-02,0.000e+00
3.770e-02,0.000e+00
3.792e-02,0.000e+00
3.813e-02,0.000e+00
3.834e-02,0.000e+00
3.856e-02,0.000e+00
3.877e-02,0.000e+00
3.899e-02,0.000e+00
3.920e-02,0.000e+00
3.941e-02,0.000e+00
3.963e-02,0.000e+00
3.984e-02,0.000e+00
4.005e-02,0.000e+00
4.027e-02,0.000e+00
4.048e-02,0.000e+00
4.069e-02,0.000e+00
4.091e-02,0.000e+00
4.112e-02,0.000e+00
4.134e-02,0.000e+00
4.155e-02,0.000e+00
4.176e-02,0.000e+00
4.198e-02,0.000e+00
4.219e-02,0.000e+00
4.240e-02,0.000e+00
4.262e-02,0.000e+00
