transmittance,probability_density
2.426e-01,2.985e-04
2.464e-01,3.373e-04
2.502e-01,3.805e-04
2.540e-01,4.284e-04
2.578e-01,4.817e-04
2.616e-01,5.407e-04
2.654e-01,6.061e-04
2.692e-01,6.784e-04
2.730e-01,7.583e-04
2.768e-01,8.463e-04
2.806e-01,9.434e-04
2.844e-01,1.050e-03
2.882e-01,1.168e-03
2.920e-01,1.297e-03
2.958e-01,1.438e-03
2.996e-01,1.593e-03
3.034e-01,1.763e-03
3.072e-01,1.949e-03
3.110e-01,2.152e-03
3.148e-01,2.374e-03
3.186e-01,2.615e-03
3.223e-01,2.879e-03
3.261e-01,3.166e-03
3.299e-01,3.478e-03
3.337e-01,3.818e-03
3.375e-01,4.187e-03
3.413e-01,4.587e-03
3.451e-01,5.021e-03
3.489e-01,5.492e-03
3.527e-01,6.002e-03
3.565e-01,6.554e-03
3.603e-01,7.151e-03
3.641e-01,7.796e-03
3.679e-01,8.493e-03
3.717e-01,9.246e-03
3.755e-01,1.006e-02
3.793e-01,1.093e-02
3.831e-01,1.188e-02
3.869e-01,1.289e-02
3.907e-01,1.398e-02
3.945e-01,1.516e-02
3.983e-01,1.643e-02
4.021e-01,1.778e-02
4.059e-01,1.924e-02
4.097e-01,2.081e-02
4.135e-01,2.249e-02
4.173e-01,2.429e-02
4.211e-01,2.622e-02
4.249e-01,2.829e-02
4.286e-01,3.051e-02
4.324e-01,3.288e-02
4.362e-01,3.542e-02
4.400e-01,3.813e-02
4.438e-01,4.103e-02
4.476e-01,4.413e-02
4.514e-01,4.744e-02
4.552e-01,5.097e-02
4.590e-01,5.474e-02
4.628e-01,5.877e-02
4.666e-01,6.306e-02
4.704e-01,6.763e-02
4.742e-01,7.251e-02
4.780e-01,7.770e-02
4.818e-01,8.323e-02
4.856e-01,8.912e-02
4.894e-01,9.539e-02
4.932e-01,1.021e-01
4.970e-01,1.091e-01
5.008e-01,1.167e-01
5.046e-01,1.247e-01
5.084e-01,1.332e-01
5.122e-01,1.423e-01
5.160e-01,1.519e-01
5.198e-01,1.621e-01
5.236e-01,1.729e-01
5.274e-01,1.844e-01
5.311e-01,1.966e-01
5.349e-01,2.095e-01
5.387e-01,2.232e-01
5.425e-01,2.377e-01
5.463e-01,2.532e-01
5.501e-01,2.695e-01
5.539e-01,2.868e-01
5.577e-01,3.051e-01
5.615e-01,3.245e-01
5.653e-01,3.451e-01
5.691e-01,3.668e-01
5.729e-01,3.899e-01
5.767e-01,4.142e-01
5.805e-01,4.400e-01
5.843e-01,4.673e-01
5.881e-01,4.962e-01
5.919e-01,5.267e-01
5.957e-01,5.590e-01
5.995e-01,5.931e-01
6.033e-01,6.293e-01
6.071e-01,6.674e-01
6.109e-01,7.078e-01
6.147e-01,7.504e-01
6.185e-01,7.955e-01
6.223e-01,8.431e-01
6.261e-01,8.935e-01
6.299e-01,9.467e-01
6.337e-01,1.003e+00
6.374e-01,1.062e+00
6.412e-01,1.125e+00
6.450e-01,1.191e+00
6.488e-01,1.261e+00
6.526e-01,1.335e+00
6.564e-01,1.414e+00
6.602e-01,1.496e+00
6.640e-01,1.584e+00
6.678e-01,1.676e+00
6.716e-01,1.774e+00
6.754e-01,1.877e+00
6.792e-01,1.986e+00
6.830e-01,2.101e+00
6.868e-01,2.223e+00
6.906e-01,2.352e+00
6.944e-01,2.489e+00
6.982e-01,2.633e+00
7.020e-01,2.786e+00
7.058e-01,2.948e+00
7.096e-01,3.119e+00
7.134e-01,3.301e+00
7.172e-01,3.494e+00
7.210e-01,3.698e+00
7.248e-01,3.915e+00
7.286e-01,4.145e+00
7.324e-01,4.390e+00
7.362e-01,4.650e+00
7.399e-01,4.928e+00
7.437e-01,5.223e+00
7.475e-01,5.538e+00
7.513e-01,5.875e+00
7.551e-01,6.235e+00
7.589e-01,6.622e+00
7.627e-01,7.037e+00
7.665e-01,7.485e+00
7.703e-01,7.968e+00
7.741e-01,8.493e+00
7.779e-01,9.065e+00
7.817e-01,9.693e+00
7.855e-01,1.039e+01
7.893e-01,1.117e+01
7.931e-01,1.205e+01
7.969e-01,1.308e+01
8.007e-01,1.435e+01
8.045e-01,1.604e+01
8.083e-01,1.913e+01
8.121e-01,0.000e+00
8.159e-01,0.000e+00
8.197e-01,0.000e+00
8.235e-01,0.000e+00
8.273e-01,0.000e+00
8.311e-01,0.000e+00
8.349e-01,0.000e+00
8.387e-01,0.000e+00
8.425e-01,0.000e+00
8.462e-01,0.000e+00
8.500e-01,0.000e+00
8.538e-01,0.000e+00
8.576e-01,0.000e+00
8.614e-01,0.000e+00
8.652e-01,0.000e+00
8.690e-01,0.000e+00
8.728e-01,0.000e+00
8.766e-01,0.000e+00
8.804e-01,0.000e+00
8.842e-01,0.000e+00
8.880e-01,0.000e+00
8.918e-01,0.000e+00
8.956e-01,0.000e+00
8.994e-01,0.000e+00
9.032e-01,0.000e+00
9.070e-01,0.000e+00
9.108e-01,0.000e+00
9.146e-01,0.000e+00
9.184e-01,0.000e+00
9.222e-01,0.000e+00
9.260e-01,0.000e+00
9.298e-01,0.000e+00
9.336e-01,0.000e+00
9.374e-01,0.000e+00
9.412e-01,0.000e+00
9.450e-01,0.000e+00
9.487e-01,0.000e+00
9.525e-01,0.000e+00
9.563e-01,0.000e+00
9.601e-01,0.000e+00
9.639e-01,0.000e+00
9.677e-01,0.000e+00
9.715e-01,0.000e+00
9.753e-01,0.000e+00
9.791e-01,0.000e+00
9.829e-01,0.000e+00
9.867e-01,0.000e+00
9.905e-01,0.000e+00
9.943e-01,0.000e+00
9.981e-01,0.000e+00
