transmittance,probability_density
4.304e-01,7.210e-05
4.333e-01,7.764e-05
4.361e-01,8.359e-05
4.390e-01,8.997e-05
4.418e-01,9.681e-05
4.447e-01,1.041e-04
4.476e-01,1.120e-04
4.504e-01,1.204e-04
4.533e-01,1.294e-04
4.561e-01,1.390e-04
4.590e-01,1.494e-04
4.618e-01,1.604e-04
4.647e-01,1.722e-04
4.675e-01,1.849e-04
4.704e-01,1.984e-04
4.733e-01,2.128e-04
4.761e-01,2.283e-04
4.790e-01,2.448e-04
4.818e-01,2.625e-04
4.847e-01,2.814e-04
4.875e-01,3.015e-04
4.904e-01,3.230e-04
4.932e-01,3.460e-04
4.961e-01,3.706e-04
4.989e-01,3.968e-04
5.018e-01,4.248e-04
5.047e-01,4.546e-04
5.075e-01,4.865e-04
5.104e-01,5.205e-04
5.132e-01,5.568e-04
5.161e-01,5.954e-04
5.189e-01,6.367e-04
5.218e-01,6.807e-04
5.246e-01,7.275e-04
5.275e-01,7.775e-04
5.304e-01,8.308e-04
5.332e-01,8.876e-04
5.361e-01,9.480e-04
5.389e-01,1.012e-03
5.418e-01,1.081e-03
5.446e-01,1.154e-03
5.475e-01,1.232e-03
5.503e-01,1.315e-03
5.532e-01,1.403e-03
5.560e-01,1.497e-03
5.589e-01,1.598e-03
5.618e-01,1.704e-03
5.646e-01,1.818e-03
5.675e-01,1.938e-03
5.703e-01,2.067e-03
5.732e-01,2.203e-03
5.760e-01,2.349e-03
5.789e-01,2.504e-03
5.817e-01,2.668e-03
5.846e-01,2.843e-03
5.875e-01,3.030e-03
5.903e-01,3.228e-03
5.932e-01,3.438e-03
5.960e-01,3.662e-03
5.989e-01,3.901e-03
6.017e-01,4.154e-03
6.046e-01,4.423e-03
6.074e-01,4.709e-03
6.103e-01,5.014e-03
6.131e-01,5.338e-03
6.160e-01,5.682e-03
6.189e-01,6.047e-03
6.217e-01,6.436e-03
6.246e-01,6.849e-03
6.274e-01,7.288e-03
6.303e-01,7.755e-03
6.331e-01,8.251e-03
6.360e-01,8.778e-03
6.388e-01,9.339e-03
6.417e-01,9.934e-03
6.446e-01,1.057e-02
6.474e-01,1.124e-02
6.503e-01,1.195e-02
6.531e-01,1.271e-02
6.560e-01,1.352e-02
6.588e-01,1.438e-02
6.617e-01,1.529e-02
6.645e-01,1.626e-02
6.674e-01,1.729e-02
6.702e-01,1.838e-02
6.731e-01,1.955e-02
6.760e-01,2.078e-02
6.788e-01,2.210e-02
6.817e-01,2.349e-02
6.845e-01,2.498e-02
6.874e-01,2.655e-02
6.902e-01,2.823e-02
6.931e-01,3.001e-02
6.959e-01,3.191e-02
6.988e-01,3.392e-02
7.017e-01,3.607e-02
7.045e-01,3.834e-02
7.074e-01,4.077e-02
7.102e-01,4.334e-02
7.131e-01,4.608e-02
7.159e-01,4.900e-02
7.188e-01,5.210e-02
7.216e-01,5.539e-02
7.245e-01,5.890e-02
7.273e-01,6.263e-02
7.302e-01,6.661e-02
7.331e-01,7.083e-02
7.359e-01,7.533e-02
7.388e-01,8.012e-02
7.416e-01,8.522e-02
7.445e-01,9.065e-02
7.473e-01,9.644e-02
7.502e-01,1.026e-01
7.530e-01,1.092e-01
7.559e-01,1.162e-01
7.588e-01,1.236e-01
7.616e-01,1.315e-01
7.645e-01,1.400e-01
7.673e-01,1.490e-01
7.702e-01,1.587e-01
7.730e-01,1.689e-01
7.759e-01,1.799e-01
7.787e-01,1.916e-01
7.816e-01,2.041e-01
7.844e-01,2.174e-01
7.873e-01,2.316e-01
7.902e-01,2.468e-01
7.930e-01,2.631e-01
7.959e-01,2.805e-01
7.987e-01,2.990e-01
8.016e-01,3.189e-01
8.044e-01,3.402e-01
8.073e-01,3.629e-01
8.101e-01,3.873e-01
8.130e-01,4.134e-01
8.159e-01,4.413e-01
8.187e-01,4.713e-01
8.216e-01,5.035e-01
8.244e-01,5.380e-01
8.273e-01,5.750e-01
8.301e-01,6.148e-01
8.330e-01,6.575e-01
8.358e-01,7.035e-01
8.387e-01,7.529e-01
8.415e-01,8.061e-01
8.444e-01,8.635e-01
8.473e-01,9.253e-01
8.501e-01,9.919e-01
8.530e-01,1.064e+00
8.558e-01,1.142e+00
8.587e-01,1.226e+00
8.615e-01,1.317e+00
8.644e-01,1.415e+00
8.672e-01,1.522e+00
8.701e-01,1.638e+00
8.730e-01,1.764e+00
8.758e-01,1.901e+00
8.787e-01,2.050e+00
8.815e-01,2.213e+00
8.844e-01,2.390e+00
8.872e-01,2.585e+00
8.901e-01,2.798e+00
8.929e-01,3.032e+00
8.958e-01,3.289e+00
8.986e-01,3.573e+00
9.015e-01,3.886e+00
9.044e-01,4.233e+00
9.072e-01,4.619e+00
9.101e-01,5.049e+00
9.129e-01,5.530e+00
9.158e-01,6.071e+00
9.186e-01,6.680e+00
9.215e-01,7.372e+00
9.243e-01,8.161e+00
9.272e-01,9.067e+00
9.301e-01,1.012e+01
9.329e-01,1.135e+01
9.358e-01,1.281e+01
9.386e-01,1.457e+01
9.415e-01,1.674e+01
9.443e-01,1.948e+01
9.472e-01,2.312e+01
9.500e-01,2.830e+01
9.529e-01,3.676e+01
9.557e-01,5.748e+01
9.586e-01,0.000e+00
9.615e-01,0.000e+00
9.643e-01,0.000e+00
9.672e-01,0.000e+00
9.700e-01,0.000e+00
9.729e-01,0.000e+00
9.757e-01,0.000e+00
9.786e-01,0.000e+00
9.814e-01,0.000e+00
9.843e-01,0.000e+00
9.872e-01,0.000e+00
9.900e-01,0.000e+00
9.929e-01,0.000e+00
9.957e-01,0.000e+00
9.986e-01,0.000e+00
