transmittance,probability_density
2.777e-01,2.982e-04
2.813e-01,3.324e-04
2.850e-01,3.700e-04
2.886e-01,4.114e-04
2.922e-01,4.570e-04
2.958e-01,5.070e-04
2.994e-01,5.619e-04
3.031e-01,6.220e-04
3.067e-01,6.879e-04
3.103e-01,7.600e-04
3.139e-01,8.388e-04
3.175e-01,9.248e-04
3.212e-01,1.019e-03
3.248e-01,1.121e-03
3.284e-01,1.233e-03
3.320e-01,1.354e-03
3.356e-01,1.487e-03
3.393e-01,1.630e-03
3.429e-01,1.787e-03
3.465e-01,1.956e-03
3.501e-01,2.140e-03
3.537e-01,2.340e-03
3.574e-01,2.556e-03
3.610e-01,2.790e-03
3.646e-01,3.043e-03
3.682e-01,3.317e-03
3.719e-01,3.613e-03
3.755e-01,3.933e-03
3.791e-01,4.278e-03
3.827e-01,4.651e-03
3.863e-01,5.052e-03
3.900e-01,5.485e-03
3.936e-01,5.951e-03
3.972e-01,6.453e-03
4.008e-01,6.994e-03
4.044e-01,7.575e-03
4.081e-01,8.199e-03
4.117e-01,8.871e-03
4.153e-01,9.592e-03
4.189e-01,1.037e-02
4.225e-01,1.120e-02
4.262e-01,1.209e-02
4.298e-01,1.304e-02
4.334e-01,1.406e-02
4.370e-01,1.516e-02
4.406e-01,1.633e-02
4.443e-01,1.759e-02
4.479e-01,1.894e-02
4.515e-01,2.037e-02
4.551e-01,2.191e-02
4.587e-01,2.355e-02
4.624e-01,2.531e-02
4.660e-01,2.718e-02
4.696e-01,2.918e-02
4.732e-01,3.132e-02
4.768e-01,3.360e-02
4.805e-01,3.603e-02
4.841e-01,3.862e-02
4.877e-01,4.138e-02
4.913e-01,4.432e-02
4.949e-01,4.746e-02
4.986e-01,5.080e-02
5.022e-01,5.435e-02
5.058e-01,5.813e-02
5.094e-01,6.216e-02
5.130e-01,6.644e-02
5.167e-01,7.099e-02
5.203e-01,7.583e-02
5.239e-01,8.098e-02
5.275e-01,8.645e-02
5.312e-01,9.226e-02
5.348e-01,9.843e-02
5.384e-01,1.050e-01
5.420e-01,1.119e-01
5.456e-01,1.193e-01
5.493e-01,1.272e-01
5.529e-01,1.355e-01
5.565e-01,1.443e-01
5.601e-01,1.537e-01
5.637e-01,1.636e-01
5.674e-01,1.741e-01
5.710e-01,1.853e-01
5.746e-01,1.971e-01
5.782e-01,2.096e-01
5.818e-01,2.229e-01
5.855e-01,2.370e-01
5.891e-01,2.519e-01
5.927e-01,2.676e-01
5.963e-01,2.843e-01
5.999e-01,3.020e-01
6.036e-01,3.208e-01
6.072e-01,3.406e-01
6.108e-01,3.616e-01
6.144e-01,3.838e-01
6.180e-01,4.073e-01
6.217e-01,4.322e-01
6.253e-01,4.585e-01
6.289e-01,4.864e-01
6.325e-01,5.158e-01
6.361e-01,5.470e-01
6.398e-01,5.800e-01
6.434e-01,6.149e-01
6.470e-01,6.518e-01
6.506e-01,6.908e-01
6.542e-01,7.321e-01
6.579e-01,7.758e-01
6.615e-01,8.220e-01
6.651e-01,8.709e-01
6.687e-01,9.225e-01
6.723e-01,9.772e-01
6.760e-01,1.035e+00
6.796e-01,1.096e+00
6.832e-01,1.161e+00
6.868e-01,1.229e+00
6.905e-01,1.302e+00
6.941e-01,1.379e+00
6.977e-01,1.460e+00
7.013e-01,1.546e+00
7.049e-01,1.637e+00
7.086e-01,1.733e+00
7.122e-01,1.835e+00
7.158e-01,1.943e+00
7.194e-01,2.058e+00
7.230e-01,2.179e+00
7.267e-01,2.308e+00
7.303e-01,2.445e+00
7.339e-01,2.590e+00
7.375e-01,2.744e+00
7.411e-01,2.907e+00
7.448e-01,3.080e+00
7.484e-01,3.265e+00
7.520e-01,3.461e+00
7.556e-01,3.670e+00
7.592e-01,3.892e+00
7.629e-01,4.129e+00
7.665e-01,4.382e+00
7.701e-01,4.652e+00
7.737e-01,4.941e+00
7.773e-01,5.250e+00
7.810e-01,5.582e+00
7.846e-01,5.938e+00
7.882e-01,6.321e+00
7.918e-01,6.733e+00
7.954e-01,7.180e+00
7.991e-01,7.664e+00
8.027e-01,8.190e+00
8.063e-01,8.766e+00
8.099e-01,9.398e+00
8.135e-01,1.010e+01
8.172e-01,1.088e+01
8.208e-01,1.176e+01
8.244e-01,1.278e+01
8.280e-01,1.398e+01
8.316e-01,1.546e+01
8.353e-01,1.745e+01
8.389e-01,2.089e+01
8.425e-01,0.000e+00
8.461e-01,0.000e+00
8.498e-01,0.000e+00
8.534e-01,0.000e+00
8.570e-01,0.000e+00
8.606e-01,0.000e+00
8.642e-01,0.000e+00
8.679e-01,0.000e+00
8.715e-01,0.000e+00
8.751e-01,0.000e+00
8.787e-01,0.000e+00
8.823e-01,0.000e+00
8.860e-01,0.000e+00
8.896e-01,0.000e+00
8.932e-01,0.000e+00
8.968e-01,0.000e+00
9.004e-01,0.000e+00
9.041e-01,0.000e+00
9.077e-01,0.000e+00
9.113e-01,0.000e+00
9.149e-01,0.000e+00
9.185e-01,0.000e+00
9.222e-01,0.000e+00
9.258e-01,0.000e+00
9.294e-01,0.000e+00
9.330e-01,0.000e+00
9.366e-01,0.000e+00
9.403e-01,0.000e+00
9.439e-01,0.000e+00
9.475e-01,0.000e+00
9.511e-01,0.000e+00
9.547e-01,0.000e+00
9.584e-01,0.000e+00
9.620e-01,0.000e+00
9.656e-01,0.000e+00
9.692e-01,0.000e+00
9.728e-01,0.000e+00
9.765e-01,0.000e+00
9.801e-01,0.000e+00
9.837e-01,0.000e+00
9.873e-01,0.000e+00
9.909e-01,0.000e+00
9.946e-01,0.000e+00
9.982e-01,0.000e+00
