transmittance,probability_density
2.500e-03,2.662e-12
7.500e-03,7.679e-10
1.250e-02,1.085e-08
1.750e-02,6.242e-08
2.250e-02,2.314e-07
2.750e-02,6.603e-07
3.250e-02,1.583e-06
3.750e-02,3.352e-06
4.250e-02,6.469e-06
4.750e-02,1.161e-05
5.250e-02,1.966e-05
5.750e-02,3.176e-05
6.250e-02,4.932e-05
6.750e-02,7.407e-05
7.250e-02,1.081e-04
7.750e-02,1.539e-04
8.250e-02,2.143e-04
8.750e-02,2.928e-04
9.250e-02,3.933e-04
9.750e-02,5.203e-04
1.025e-01,6.789e-04
1.075e-01,8.749e-04
1.125e-01,1.115e-03
1.175e-01,1.406e-03
1.225e-01,1.756e-03
1.275e-01,2.174e-03
1.325e-01,2.671e-03
1.375e-01,3.256e-03
1.425e-01,3.943e-03
1.475e-01,4.743e-03
1.525e-01,5.672e-03
1.575e-01,6.744e-03
1.625e-01,7.977e-03
1.675e-01,9.388e-03
1.725e-01,1.100e-02
1.775e-01,1.283e-02
1.825e-01,1.490e-02
1.875e-01,1.724e-02
1.925e-01,1.987e-02
1.975e-01,2.282e-02
2.025e-01,2.612e-02
2.075e-01,2.980e-02
2.125e-01,3.390e-02
2.175e-01,3.845e-02
2.225e-01,4.350e-02
2.275e-01,4.907e-02
2.325e-01,5.522e-02
2.375e-01,6.198e-02
2.425e-01,6.942e-02
2.475e-01,7.757e-02
2.525e-01,8.650e-02
2.575e-01,9.626e-02
2.625e-01,1.069e-01
2.675e-01,1.185e-01
2.725e-01,1.311e-01
2.775e-01,1.448e-01
2.825e-01,1.597e-01
2.875e-01,1.758e-01
2.925e-01,1.932e-01
2.975e-01,2.121e-01
3.025e-01,2.324e-01
3.075e-01,2.543e-01
3.125e-01,2.779e-01
3.175e-01,3.033e-01
3.225e-01,3.305e-01
3.275e-01,3.598e-01
3.325e-01,3.912e-01
3.375e-01,4.248e-01
3.425e-01,4.608e-01
3.475e-01,4.993e-01
3.525e-01,5.404e-01
3.575e-01,5.844e-01
3.625e-01,6.312e-01
3.675e-01,6.812e-01
3.725e-01,7.343e-01
3.775e-01,7.910e-01
3.825e-01,8.512e-01
3.875e-01,9.152e-01
3.925e-01,9.832e-01
3.975e-01,1.055e+00
4.025e-01,1.132e+00
4.075e-01,1.213e+00
4.125e-01,1.299e+00
4.175e-01,1.390e+00
4.225e-01,1.487e+00
4.275e-01,1.588e+00
4.325e-01,1.696e+00
4.375e-01,1.810e+00
4.425e-01,1.931e+00
4.475e-01,2.058e+00
4.525e-01,2.192e+00
4.575e-01,2.333e+00
4.625e-01,2.483e+00
4.675e-01,2.640e+00
4.725e-01,2.806e+00
4.775e-01,2.980e+00
4.825e-01,3.164e+00
4.875e-01,3.358e+00
4.925e-01,3.562e+00
4.975e-01,3.777e+00
5.025e-01,4.003e+00
5.075e-01,4.240e+00
5.125e-01,4.490e+00
5.175e-01,4.753e+00
5.225e-01,5.030e+00
5.275e-01,5.322e+00
5.325e-01,5.628e+00
5.375e-01,5.951e+00
5.425e-01,6.291e+00
5.475e-01,6.650e+00
5.525e-01,7.028e+00
5.575e-01,7.428e+00
5.625e-01,7.851e+00
5.675e-01,8.300e+00
5.725e-01,8.779e+00
5.775e-01,9.292e+00
5.825e-01,9.848e+00
5.875e-01,1.046e+01
5.925e-01,1.118e+01
5.975e-01,1.226e+01
6.025e-01,0.000e+00
6.075e-01,0.000e+00
6.125e-01,0.000e+00
6.175e-01,0.000e+00
6.225e-01,0.000e+00
6.275e-01,0.000e+00
6.325e-01,0.000e+00
6.375e-01,0.000e+00
6.425e-01,0.000e+00
6.475e-01,0.000e+00
6.525e-01,0.000e+00
6.575e-01,0.000e+00
6.625e-01,0.000e+00
6.675e-01,0.000e+00
6.725e-01,0.000e+00
6.775e-01,0.000e+00
6.825e-01,0.000e+00
6.875e-01,0.000e+00
6.925e-01,0.000e+00
6.975e-01,0.000e+00
7.025e-01,0.000e+00
7.075e-01,0.000e+00
7.125e-01,0.000e+00
7.175e-01,0.000e+00
7.225e-01,0.000e+00
7.275e-01,0.000e+00
7.325e-01,0.000e+00
7.375e-01,0.000e+00
7.425e-01,0.000e+00
7.475e-01,0.000e+00
7.525e-01,0.000e+00
7.575e-01,0.000e+00
7.625e-01,0.000e+00
7.675e-01,0.000e+00
7.725e-01,0.000e+00
7.775e-01,0.000e+00
7.825e-01,0.000e+00
7.875e-01,0.000e+00
7.925e-01,0.000e+00
7.975e-01,0.000e+00
8.025e-01,0.000e+00
8.075e-01,0.000e+00
8.125e-01,0.000e+00
8.175e-01,0.000e+00
8.225e-01,0.000e+00
8.275e-01,0.000e+00
8.325e-01,0.000e+00
8.375e-01,0.000e+00
8.425e-01,0.000e+00
8.475e-01,0.000e+00
8.525e-01,0.000e+00
8.575e-01,0.000e+00
8.625e-01,0.000e+00
8.675e-01,0.000e+00
8.725e-01,0.000e+00
8.775e-01,0.000e+00
8.825e-01,0.000e+00
8.875e-01,0.000e+00
8.925e-01,0.000e+00
8.975e-01,0.000e+00
9.025e-01,0.000e+00
9.075e-01,0.000e+00
9.125e-01,0.000e+00
9.175e-01,0.000e+00
9.225e-01,0.000e+00
9.275e-01,0.000e+00
9.325e-01,0.000e+00
9.375e-01,0.000e+00
9.425e-01,0.000e+00
9.475e-01,0.000e+00
9.525e-01,0.000e+00
9.575e-01,0.000e+00
9.625e-01,0.000e+00
9.675e-01,0.000e+00
9.725e-01,0.000e+00
9.775e-01,0.000e+00
9.825e-01,0.000e+00
9.875e-01,0.000e+00
9.925e-01,0.000e+00
9.975e-01,0.000e+00
