transmittance,probability_density
1.688e-01,4.787e-05
1.730e-01,5.674e-05
1.771e-01,6.701e-05
1.813e-01,7.885e-05
1.855e-01,9.247e-05
1.896e-01,1.081e-04
1.938e-01,1.260e-04
1.980e-01,1.463e-04
2.021e-01,1.695e-04
2.063e-01,1.959e-04
2.105e-01,2.257e-04
2.146e-01,2.594e-04
2.188e-01,2.974e-04
2.230e-01,3.402e-04
2.271e-01,3.883e-04
2.313e-01,4.422e-04
2.355e-01,5.026e-04
2.396e-01,5.700e-04
2.438e-01,6.452e-04
2.480e-01,7.290e-04
2.521e-01,8.221e-04
2.563e-01,9.255e-04
2.605e-01,1.040e-03
2.646e-01,1.167e-03
2.688e-01,1.307e-03
2.730e-01,1.462e-03
2.771e-01,1.633e-03
2.813e-01,1.821e-03
2.855e-01,2.027e-03
2.896e-01,2.255e-03
2.938e-01,2.504e-03
2.980e-01,2.777e-03
3.021e-01,3.076e-03
3.063e-01,3.403e-03
3.105e-01,3.760e-03
3.146e-01,4.151e-03
3.188e-01,4.576e-03
3.230e-01,5.039e-03
3.271e-01,5.544e-03
3.313e-01,6.092e-03
3.355e-01,6.688e-03
3.396e-01,7.335e-03
3.438e-01,8.037e-03
3.480e-01,8.798e-03
3.521e-01,9.622e-03
3.563e-01,1.051e-02
3.605e-01,1.148e-02
3.646e-01,1.252e-02
3.688e-01,1.365e-02
3.730e-01,1.486e-02
3.771e-01,1.617e-02
3.813e-01,1.758e-02
3.855e-01,1.910e-02
3.896e-01,2.074e-02
3.938e-01,2.250e-02
3.980e-01,2.439e-02
4.021e-01,2.642e-02
4.063e-01,2.860e-02
4.105e-01,3.095e-02
4.146e-01,3.346e-02
4.188e-01,3.615e-02
4.230e-01,3.904e-02
4.271e-01,4.213e-02
4.313e-01,4.544e-02
4.355e-01,4.898e-02
4.396e-01,5.277e-02
4.438e-01,5.682e-02
4.480e-01,6.114e-02
4.521e-01,6.577e-02
4.563e-01,7.070e-02
4.605e-01,7.596e-02
4.646e-01,8.158e-02
4.688e-01,8.756e-02
4.730e-01,9.395e-02
4.771e-01,1.007e-01
4.813e-01,1.080e-01
4.855e-01,1.157e-01
4.896e-01,1.239e-01
4.938e-01,1.326e-01
4.980e-01,1.419e-01
5.021e-01,1.518e-01
5.063e-01,1.623e-01
5.105e-01,1.735e-01
5.146e-01,1.853e-01
5.188e-01,1.979e-01
5.230e-01,2.112e-01
5.271e-01,2.254e-01
5.313e-01,2.405e-01
5.355e-01,2.564e-01
5.396e-01,2.734e-01
5.438e-01,2.913e-01
5.479e-01,3.104e-01
5.521e-01,3.305e-01
5.563e-01,3.519e-01
5.604e-01,3.746e-01
5.646e-01,3.986e-01
5.688e-01,4.240e-01
5.729e-01,4.509e-01
5.771e-01,4.794e-01
5.813e-01,5.095e-01
5.854e-01,5.414e-01
5.896e-01,5.752e-01
5.938e-01,6.109e-01
5.979e-01,6.487e-01
6.021e-01,6.887e-01
6.063e-01,7.310e-01
6.104e-01,7.757e-01
6.146e-01,8.230e-01
6.188e-01,8.730e-01
6.229e-01,9.259e-01
6.271e-01,9.818e-01
6.313e-01,1.041e+00
6.354e-01,1.103e+00
6.396e-01,1.169e+00
6.438e-01,1.239e+00
6.479e-01,1.313e+00
6.521e-01,1.391e+00
6.563e-01,1.474e+00
6.604e-01,1.561e+00
6.646e-01,1.653e+00
6.688e-01,1.751e+00
6.729e-01,1.854e+00
6.771e-01,1.963e+00
6.813e-01,2.079e+00
6.854e-01,2.201e+00
6.896e-01,2.331e+00
6.938e-01,2.468e+00
6.979e-01,2.613e+00
7.021e-01,2.767e+00
7.063e-01,2.930e+00
7.104e-01,3.102e+00
7.146e-01,3.286e+00
7.188e-01,3.480e+00
7.229e-01,3.687e+00
7.271e-01,3.907e+00
7.313e-01,4.140e+00
7.354e-01,4.389e+00
7.396e-01,4.654e+00
7.438e-01,4.937e+00
7.479e-01,5.239e+00
7.521e-01,5.562e+00
7.563e-01,5.908e+00
7.604e-01,6.281e+00
7.646e-01,6.681e+00
7.688e-01,7.114e+00
7.729e-01,7.583e+00
7.771e-01,8.094e+00
7.813e-01,8.653e+00
7.854e-01,9.271e+00
7.896e-01,9.960e+00
7.938e-01,1.074e+01
7.979e-01,1.164e+01
8.021e-01,1.272e+01
8.063e-01,1.411e+01
8.104e-01,1.624e+01
8.146e-01,0.000e+00
8.188e-01,0.000e+00
8.229e-01,0.000e+00
8.271e-01,0.000e+00
8.313e-01,0.000e+00
8.354e-01,0.000e+00
8.396e-01,0.000e+00
8.438e-01,0.000e+00
8.479e-01,0.000e+00
8.521e-01,0.000e+00
8.563e-01,0.000e+00
8.604e-01,0.000e+00
8.646e-01,0.000e+00
8.688e-01,0.000e+00
8.729e-01,0.000e+00
8.771e-01,0.000e+00
8.813e-01,0.000e+00
8.854e-01,0.000e+00
8.896e-01,0.000e+00
8.938e-01,0.000e+00
8.979e-01,0.000e+00
9.021e-01,0.000e+00
9.063e-01,0.000e+00
9.104e-01,0.000e+00
9.146e-01,0.000e+00
9.188e-01,0.000e+00
9.229e-01,0.000e+00
9.271e-01,0.000e+00
9.313e-01,0.000e+00
9.354e-01,0.000e+00
9.396e-01,0.000e+00
9.438e-01,0.000e+00
9.479e-01,0.000e+00
9.521e-01,0.000e+00
9.563e-01,0.000e+00
9.604e-01,0.000e+00
9.646e-01,0.000e+00
9.688e-01,0.000e+00
9.729e-01,0.000e+00
9.771e-01,0.000e+00
9.813e-01,0.000e+00
9.854e-01,0.000e+00
9.896e-01,0.000e+00
9.938e-01,0.000e+00
9.979e-01,0.000e+00
