transmittance,probability_density
7.173e-01,5.080e-05
7.188e-01,5.322e-05
7.202e-01,5.575e-05
7.216e-01,5.842e-05
7.230e-01,6.121e-05
7.244e-01,6.413e-05
7.258e-01,6.720e-05
7.273e-01,7.042e-05
7.287e-01,7.380e-05
7.301e-01,7.735e-05
7.315e-01,8.107e-05
7.329e-01,8.497e-05
7.343e-01,8.906e-05
7.358e-01,9.336e-05
7.372e-01,9.787e-05
7.386e-01,1.026e-04
7.400e-01,1.076e-04
7.414e-01,1.128e-04
7.428e-01,1.183e-04
7.443e-01,1.240e-04
7.457e-01,1.300e-04
7.471e-01,1.364e-04
7.485e-01,1.430e-04
7.499e-01,1.500e-04
7.513e-01,1.573e-04
7.528e-01,1.651e-04
7.542e-01,1.731e-04
7.556e-01,1.817e-04
7.570e-01,1.906e-04
7.584e-01,2.000e-04
7.598e-01,2.098e-04
7.613e-01,2.202e-04
7.627e-01,2.311e-04
7.641e-01,2.426e-04
7.655e-01,2.546e-04
7.669e-01,2.673e-04
7.684e-01,2.806e-04
7.698e-01,2.946e-04
7.712e-01,3.093e-04
7.726e-01,3.248e-04
7.740e-01,3.410e-04
7.754e-01,3.582e-04
7.769e-01,3.762e-04
7.783e-01,3.951e-04
7.797e-01,4.151e-04
7.811e-01,4.361e-04
7.825e-01,4.582e-04
7.839e-01,4.814e-04
7.854e-01,5.059e-04
7.868e-01,5.317e-04
7.882e-01,5.589e-04
7.896e-01,5.875e-04
7.910e-01,6.176e-04
7.924e-01,6.493e-04
7.939e-01,6.827e-04
7.953e-01,7.179e-04
7.967e-01,7.550e-04
7.981e-01,7.942e-04
7.995e-01,8.354e-04
8.009e-01,8.788e-04
8.024e-01,9.247e-04
8.038e-01,9.730e-04
8.052e-01,1.024e-03
8.066e-01,1.078e-03
8.080e-01,1.134e-03
8.094e-01,1.194e-03
8.109e-01,1.257e-03
8.123e-01,1.324e-03
8.137e-01,1.394e-03
8.151e-01,1.469e-03
8.165e-01,1.547e-03
8.179e-01,1.630e-03
8.194e-01,1.718e-03
8.208e-01,1.810e-03
8.222e-01,1.908e-03
8.236e-01,2.011e-03
8.250e-01,2.120e-03
8.264e-01,2.236e-03
8.279e-01,2.358e-03
8.293e-01,2.487e-03
8.307e-01,2.623e-03
8.321e-01,2.768e-03
8.335e-01,2.921e-03
8.349e-01,3.082e-03
8.364e-01,3.254e-03
8.378e-01,3.435e-03
8.392e-01,3.627e-03
8.406e-01,3.831e-03
8.420e-01,4.046e-03
8.434e-01,4.275e-03
8.449e-01,4.517e-03
8.463e-01,4.774e-03
8.477e-01,5.046e-03
8.491e-01,5.335e-03
8.505e-01,5.642e-03
8.519e-01,5.967e-03
8.534e-01,6.313e-03
8.548e-01,6.679e-03
8.562e-01,7.069e-03
8.576e-01,7.483e-03
8.590e-01,7.923e-03
8.604e-01,8.390e-03
8.619e-01,8.887e-03
8.633e-01,9.416e-03
8.647e-01,9.978e-03
8.661e-01,1.058e-02
8.675e-01,1.121e-02
8.689e-01,1.189e-02
8.704e-01,1.262e-02
8.718e-01,1.339e-02
8.732e-01,1.421e-02
8.746e-01,1.508e-02
8.760e-01,1.601e-02
8.774e-01,1.701e-02
8.789e-01,1.807e-02
8.803e-01,1.921e-02
8.817e-01,2.042e-02
8.831e-01,2.172e-02
8.845e-01,2.310e-02
8.859e-01,2.458e-02
8.874e-01,2.617e-02
8.888e-01,2.786e-02
8.902e-01,2.968e-02
8.916e-01,3.162e-02
8.930e-01,3.371e-02
8.944e-01,3.594e-02
8.959e-01,3.834e-02
8.973e-01,4.091e-02
8.987e-01,4.368e-02
9.001e-01,4.664e-02
9.015e-01,4.983e-02
9.029e-01,5.327e-02
9.044e-01,5.696e-02
9.058e-01,6.093e-02
9.072e-01,6.521e-02
9.086e-01,6.983e-02
9.100e-01,7.480e-02
9.114e-01,8.018e-02
9.129e-01,8.598e-02
9.143e-01,9.225e-02
9.157e-01,9.903e-02
9.171e-01,1.064e-01
9.185e-01,1.143e-01
9.199e-01,1.229e-01
9.214e-01,1.323e-01
9.228e-01,1.424e-01
9.242e-01,1.534e-01
9.256e-01,1.654e-01
9.270e-01,1.784e-01
9.285e-01,1.926e-01
9.299e-01,2.081e-01
9.313e-01,2.250e-01
9.327e-01,2.435e-01
9.341e-01,2.637e-01
9.355e-01,2.858e-01
9.370e-01,3.101e-01
9.384e-01,3.367e-01
9.398e-01,3.660e-01
9.412e-01,3.982e-01
9.426e-01,4.337e-01
9.440e-01,4.729e-01
9.455e-01,5.162e-01
9.469e-01,5.642e-01
9.483e-01,6.174e-01
9.497e-01,6.765e-01
9.511e-01,7.423e-01
9.525e-01,8.157e-01
9.540e-01,8.978e-01
9.554e-01,9.897e-01
9.568e-01,1.093e+00
9.582e-01,1.209e+00
9.596e-01,1.340e+00
9.610e-01,1.489e+00
9.625e-01,1.657e+00
9.639e-01,1.849e+00
9.653e-01,2.069e+00
9.667e-01,2.321e+00
9.681e-01,2.611e+00
9.695e-01,2.947e+00
9.710e-01,3.339e+00
9.724e-01,3.797e+00
9.738e-01,4.337e+00
9.752e-01,4.977e+00
9.766e-01,5.743e+00
9.780e-01,6.666e+00
9.795e-01,7.792e+00
9.809e-01,9.181e+00
9.823e-01,1.092e+01
9.837e-01,1.313e+01
9.851e-01,1.600e+01
9.865e-01,1.983e+01
9.880e-01,2.513e+01
9.894e-01,3.279e+01
9.908e-01,4.467e+01
9.922e-01,6.527e+01
9.936e-01,1.099e+02
9.950e-01,3.218e+02
9.965e-01,0.000e+00
9.979e-01,0.000e+00
9.993e-01,0.000e+00
