transmittance,probability_density
6.552e-01,5.738e-05
6.570e-01,6.036e-05
6.587e-01,6.350e-05
6.604e-01,6.680e-05
6.621e-01,7.027e-05
6.639e-01,7.392e-05
6.656e-01,7.777e-05
6.673e-01,8.181e-05
6.691e-01,8.607e-05
6.708e-01,9.055e-05
6.725e-01,9.527e-05
6.742e-01,1.002e-04
6.760e-01,1.055e-04
6.777e-01,1.109e-04
6.794e-01,1.167e-04
6.812e-01,1.228e-04
6.829e-01,1.292e-04
6.846e-01,1.360e-04
6.863e-01,1.431e-04
6.881e-01,1.506e-04
6.898e-01,1.585e-04
6.915e-01,1.668e-04
6.932e-01,1.755e-04
6.950e-01,1.847e-04
6.967e-01,1.944e-04
6.984e-01,2.046e-04
7.002e-01,2.153e-04
7.019e-01,2.266e-04
7.036e-01,2.386e-04
7.053e-01,2.511e-04
7.071e-01,2.643e-04
7.088e-01,2.783e-04
7.105e-01,2.929e-04
7.123e-01,3.084e-04
7.140e-01,3.247e-04
7.157e-01,3.419e-04
7.174e-01,3.600e-04
7.192e-01,3.791e-04
7.209e-01,3.992e-04
7.226e-01,4.204e-04
7.244e-01,4.427e-04
7.261e-01,4.663e-04
7.278e-01,4.911e-04
7.295e-01,5.173e-04
7.313e-01,5.449e-04
7.330e-01,5.740e-04
7.347e-01,6.047e-04
7.365e-01,6.371e-04
7.382e-01,6.713e-04
7.399e-01,7.074e-04
7.416e-01,7.454e-04
7.434e-01,7.855e-04
7.451e-01,8.279e-04
7.468e-01,8.725e-04
7.485e-01,9.197e-04
7.503e-01,9.695e-04
7.520e-01,1.022e-03
7.537e-01,1.078e-03
7.555e-01,1.136e-03
7.572e-01,1.198e-03
7.589e-01,1.263e-03
7.606e-01,1.332e-03
7.624e-01,1.405e-03
7.641e-01,1.482e-03
7.658e-01,1.564e-03
7.676e-01,1.650e-03
7.693e-01,1.740e-03
7.710e-01,1.836e-03
7.727e-01,1.938e-03
7.745e-01,2.045e-03
7.762e-01,2.159e-03
7.779e-01,2.279e-03
7.797e-01,2.406e-03
7.814e-01,2.540e-03
7.831e-01,2.682e-03
7.848e-01,2.832e-03
7.866e-01,2.991e-03
7.883e-01,3.160e-03
7.900e-01,3.338e-03
7.918e-01,3.527e-03
7.935e-01,3.727e-03
7.952e-01,3.938e-03
7.969e-01,4.162e-03
7.987e-01,4.400e-03
8.004e-01,4.651e-03
8.021e-01,4.918e-03
8.039e-01,5.201e-03
8.056e-01,5.501e-03
8.073e-01,5.818e-03
8.090e-01,6.155e-03
8.108e-01,6.513e-03
8.125e-01,6.892e-03
8.142e-01,7.295e-03
8.159e-01,7.722e-03
8.177e-01,8.176e-03
8.194e-01,8.657e-03
8.211e-01,9.169e-03
8.229e-01,9.712e-03
8.246e-01,1.029e-02
8.263e-01,1.090e-02
8.280e-01,1.156e-02
8.298e-01,1.225e-02
8.315e-01,1.299e-02
8.332e-01,1.377e-02
8.350e-01,1.461e-02
8.367e-01,1.550e-02
8.384e-01,1.644e-02
8.401e-01,1.745e-02
8.419e-01,1.853e-02
8.436e-01,1.967e-02
8.453e-01,2.089e-02
8.471e-01,2.219e-02
8.488e-01,2.358e-02
8.505e-01,2.506e-02
8.522e-01,2.664e-02
8.540e-01,2.832e-02
8.557e-01,3.012e-02
8.574e-01,3.205e-02
8.592e-01,3.410e-02
8.609e-01,3.630e-02
8.626e-01,3.865e-02
8.643e-01,4.116e-02
8.661e-01,4.385e-02
8.678e-01,4.673e-02
8.695e-01,4.982e-02
8.713e-01,5.312e-02
8.730e-01,5.666e-02
8.747e-01,6.047e-02
8.764e-01,6.454e-02
8.782e-01,6.892e-02
8.799e-01,7.362e-02
8.816e-01,7.867e-02
8.833e-01,8.410e-02
8.851e-01,8.994e-02
8.868e-01,9.623e-02
8.885e-01,1.030e-01
8.903e-01,1.103e-01
8.920e-01,1.181e-01
8.937e-01,1.266e-01
8.954e-01,1.358e-01
8.972e-01,1.457e-01
8.989e-01,1.563e-01
9.006e-01,1.679e-01
9.024e-01,1.804e-01
9.041e-01,1.939e-01
9.058e-01,2.086e-01
9.075e-01,2.245e-01
9.093e-01,2.418e-01
9.110e-01,2.606e-01
9.127e-01,2.810e-01
9.145e-01,3.032e-01
9.162e-01,3.274e-01
9.179e-01,3.538e-01
9.196e-01,3.826e-01
9.214e-01,4.141e-01
9.231e-01,4.486e-01
9.248e-01,4.864e-01
9.266e-01,5.278e-01
9.283e-01,5.732e-01
9.300e-01,6.232e-01
9.317e-01,6.782e-01
9.335e-01,7.389e-01
9.352e-01,8.060e-01
9.369e-01,8.801e-01
9.386e-01,9.623e-01
9.404e-01,1.054e+00
9.421e-01,1.155e+00
9.438e-01,1.268e+00
9.456e-01,1.395e+00
9.473e-01,1.536e+00
9.490e-01,1.695e+00
9.507e-01,1.874e+00
9.525e-01,2.076e+00
9.542e-01,2.305e+00
9.559e-01,2.565e+00
9.577e-01,2.861e+00
9.594e-01,3.200e+00
9.611e-01,3.591e+00
9.628e-01,4.042e+00
9.646e-01,4.567e+00
9.663e-01,5.180e+00
9.680e-01,5.903e+00
9.698e-01,6.759e+00
9.715e-01,7.785e+00
9.732e-01,9.026e+00
9.749e-01,1.054e+01
9.767e-01,1.243e+01
9.784e-01,1.482e+01
9.801e-01,1.790e+01
9.819e-01,2.200e+01
9.836e-01,2.768e+01
9.853e-01,3.597e+01
9.870e-01,4.919e+01
9.888e-01,7.392e+01
9.905e-01,1.444e+02
9.922e-01,0.000e+00
9.940e-01,0.000e+00
9.957e-01,0.000e+00
9.974e-01,0.000e+00
9.991e-01,0.000e+00
