transmittance,probability_density
8.039e-01,2.172e-05
8.048e-01,2.267e-05
8.058e-01,2.367e-05
8.068e-01,2.471e-05
8.078e-01,2.580e-05
8.088e-01,2.694e-05
8.098e-01,2.813e-05
8.107e-01,2.937e-05
8.117e-01,3.068e-05
8.127e-01,3.204e-05
8.137e-01,3.347e-05
8.147e-01,3.496e-05
8.157e-01,3.653e-05
8.166e-01,3.817e-05
8.176e-01,3.988e-05
8.186e-01,4.168e-05
8.196e-01,4.356e-05
8.206e-01,4.553e-05
8.216e-01,4.759e-05
8.225e-01,4.975e-05
8.235e-01,5.201e-05
8.245e-01,5.439e-05
8.255e-01,5.687e-05
8.265e-01,5.948e-05
8.275e-01,6.221e-05
8.284e-01,6.507e-05
8.294e-01,6.808e-05
8.304e-01,7.122e-05
8.314e-01,7.453e-05
8.324e-01,7.799e-05
8.334e-01,8.162e-05
8.343e-01,8.543e-05
8.353e-01,8.943e-05
8.363e-01,9.362e-05
8.373e-01,9.803e-05
8.383e-01,1.026e-04
8.392e-01,1.075e-04
8.402e-01,1.126e-04
8.412e-01,1.179e-04
8.422e-01,1.236e-04
8.432e-01,1.295e-04
8.442e-01,1.357e-04
8.451e-01,1.422e-04
8.461e-01,1.490e-04
8.471e-01,1.562e-04
8.481e-01,1.638e-04
8.491e-01,1.717e-04
8.501e-01,1.801e-04
8.510e-01,1.889e-04
8.520e-01,1.981e-04
8.530e-01,2.078e-04
8.540e-01,2.181e-04
8.550e-01,2.288e-04
8.560e-01,2.402e-04
8.569e-01,2.521e-04
8.579e-01,2.646e-04
8.589e-01,2.779e-04
8.599e-01,2.918e-04
8.609e-01,3.064e-04
8.619e-01,3.219e-04
8.628e-01,3.382e-04
8.638e-01,3.553e-04
8.648e-01,3.734e-04
8.658e-01,3.925e-04
8.668e-01,4.126e-04
8.678e-01,4.338e-04
8.687e-01,4.562e-04
8.697e-01,4.798e-04
8.707e-01,5.047e-04
8.717e-01,5.311e-04
8.727e-01,5.588e-04
8.737e-01,5.882e-04
8.746e-01,6.191e-04
8.756e-01,6.519e-04
8.766e-01,6.864e-04
8.776e-01,7.230e-04
8.786e-01,7.616e-04
8.796e-01,8.025e-04
8.805e-01,8.457e-04
8.815e-01,8.914e-04
8.825e-01,9.398e-04
8.835e-01,9.910e-04
8.845e-01,1.045e-03
8.855e-01,1.103e-03
8.864e-01,1.163e-03
8.874e-01,1.228e-03
8.884e-01,1.296e-03
8.894e-01,1.368e-03
8.904e-01,1.445e-03
8.914e-01,1.526e-03
8.923e-01,1.613e-03
8.933e-01,1.704e-03
8.943e-01,1.801e-03
8.953e-01,1.905e-03
8.963e-01,2.014e-03
8.973e-01,2.131e-03
8.982e-01,2.254e-03
8.992e-01,2.386e-03
9.002e-01,2.526e-03
9.012e-01,2.675e-03
9.022e-01,2.833e-03
9.032e-01,3.002e-03
9.041e-01,3.181e-03
9.051e-01,3.372e-03
9.061e-01,3.576e-03
9.071e-01,3.793e-03
9.081e-01,4.025e-03
9.091e-01,4.272e-03
9.100e-01,4.536e-03
9.110e-01,4.817e-03
9.120e-01,5.118e-03
9.130e-01,5.439e-03
9.140e-01,5.782e-03
9.150e-01,6.149e-03
9.159e-01,6.541e-03
9.169e-01,6.962e-03
9.179e-01,7.411e-03
9.189e-01,7.893e-03
9.199e-01,8.410e-03
9.209e-01,8.963e-03
9.218e-01,9.557e-03
9.228e-01,1.019e-02
9.238e-01,1.088e-02
9.248e-01,1.161e-02
9.258e-01,1.240e-02
9.268e-01,1.325e-02
9.277e-01,1.417e-02
9.287e-01,1.515e-02
9.297e-01,1.621e-02
9.307e-01,1.736e-02
9.317e-01,1.859e-02
9.327e-01,1.992e-02
9.336e-01,2.136e-02
9.346e-01,2.291e-02
9.356e-01,2.459e-02
9.366e-01,2.641e-02
9.376e-01,2.838e-02
9.386e-01,3.051e-02
9.395e-01,3.283e-02
9.405e-01,3.534e-02
9.415e-01,3.806e-02
9.425e-01,4.103e-02
9.435e-01,4.426e-02
9.445e-01,4.777e-02
9.454e-01,5.160e-02
9.464e-01,5.578e-02
9.474e-01,6.034e-02
9.484e-01,6.533e-02
9.494e-01,7.079e-02
9.503e-01,7.677e-02
9.513e-01,8.333e-02
9.523e-01,9.053e-02
9.533e-01,9.844e-02
9.543e-01,1.071e-01
9.553e-01,1.167e-01
9.562e-01,1.273e-01
9.572e-01,1.390e-01
9.582e-01,1.520e-01
9.592e-01,1.663e-01
9.602e-01,1.822e-01
9.612e-01,1.999e-01
9.621e-01,2.196e-01
9.631e-01,2.416e-01
9.641e-01,2.661e-01
9.651e-01,2.936e-01
9.661e-01,3.245e-01
9.671e-01,3.592e-01
9.680e-01,3.983e-01
9.690e-01,4.425e-01
9.700e-01,4.925e-01
9.710e-01,5.493e-01
9.720e-01,6.140e-01
9.730e-01,6.880e-01
9.739e-01,7.727e-01
9.749e-01,8.701e-01
9.759e-01,9.826e-01
9.769e-01,1.113e+00
9.779e-01,1.265e+00
9.789e-01,1.442e+00
9.798e-01,1.651e+00
9.808e-01,1.898e+00
9.818e-01,2.191e+00
9.828e-01,2.542e+00
9.838e-01,2.966e+00
9.848e-01,3.482e+00
9.857e-01,4.115e+00
9.867e-01,4.901e+00
9.877e-01,5.889e+00
9.887e-01,7.148e+00
9.897e-01,8.780e+00
9.907e-01,1.094e+01
9.916e-01,1.387e+01
9.926e-01,1.796e+01
9.936e-01,2.392e+01
9.946e-01,3.308e+01
9.956e-01,4.833e+01
9.966e-01,7.720e+01
9.975e-01,1.474e+02
9.985e-01,5.510e+02
9.995e-01,0.000e+00
