transmittance,probability_density
8.039e-01,2.584e-05
8.049e-01,2.700e-05
8.059e-01,2.821e-05
8.069e-01,2.948e-05
8.079e-01,3.081e-05
8.089e-01,3.221e-05
8.098e-01,3.367e-05
8.108e-01,3.520e-05
8.118e-01,3.680e-05
8.128e-01,3.848e-05
8.138e-01,4.023e-05
8.148e-01,4.207e-05
8.157e-01,4.400e-05
8.167e-01,4.602e-05
8.177e-01,4.814e-05
8.187e-01,5.036e-05
8.197e-01,5.269e-05
8.207e-01,5.513e-05
8.216e-01,5.769e-05
8.226e-01,6.037e-05
8.236e-01,6.318e-05
8.246e-01,6.613e-05
8.256e-01,6.923e-05
8.265e-01,7.247e-05
8.275e-01,7.588e-05
8.285e-01,7.945e-05
8.295e-01,8.320e-05
8.305e-01,8.714e-05
8.315e-01,9.127e-05
8.324e-01,9.560e-05
8.334e-01,1.002e-04
8.344e-01,1.049e-04
8.354e-01,1.100e-04
8.364e-01,1.152e-04
8.374e-01,1.208e-04
8.383e-01,1.266e-04
8.393e-01,1.327e-04
8.403e-01,1.391e-04
8.413e-01,1.459e-04
8.423e-01,1.530e-04
8.433e-01,1.604e-04
8.442e-01,1.683e-04
8.452e-01,1.765e-04
8.462e-01,1.852e-04
8.472e-01,1.943e-04
8.482e-01,2.039e-04
8.492e-01,2.140e-04
8.501e-01,2.246e-04
8.511e-01,2.358e-04
8.521e-01,2.476e-04
8.531e-01,2.600e-04
8.541e-01,2.730e-04
8.550e-01,2.868e-04
8.560e-01,3.013e-04
8.570e-01,3.165e-04
8.580e-01,3.326e-04
8.590e-01,3.495e-04
8.600e-01,3.674e-04
8.609e-01,3.862e-04
8.619e-01,4.060e-04
8.629e-01,4.270e-04
8.639e-01,4.490e-04
8.649e-01,4.723e-04
8.659e-01,4.969e-04
8.668e-01,5.228e-04
8.678e-01,5.501e-04
8.688e-01,5.790e-04
8.698e-01,6.095e-04
8.708e-01,6.417e-04
8.718e-01,6.758e-04
8.727e-01,7.117e-04
8.737e-01,7.497e-04
8.747e-01,7.899e-04
8.757e-01,8.323e-04
8.767e-01,8.772e-04
8.777e-01,9.247e-04
8.786e-01,9.749e-04
8.796e-01,1.028e-03
8.806e-01,1.084e-03
8.816e-01,1.144e-03
8.826e-01,1.207e-03
8.835e-01,1.274e-03
8.845e-01,1.344e-03
8.855e-01,1.419e-03
8.865e-01,1.499e-03
8.875e-01,1.583e-03
8.885e-01,1.672e-03
8.894e-01,1.767e-03
8.904e-01,1.867e-03
8.914e-01,1.974e-03
8.924e-01,2.087e-03
8.934e-01,2.207e-03
8.944e-01,2.335e-03
8.953e-01,2.471e-03
8.963e-01,2.615e-03
8.973e-01,2.768e-03
8.983e-01,2.931e-03
8.993e-01,3.104e-03
9.003e-01,3.289e-03
9.012e-01,3.485e-03
9.022e-01,3.694e-03
9.032e-01,3.916e-03
9.042e-01,4.153e-03
9.052e-01,4.406e-03
9.061e-01,4.675e-03
9.071e-01,4.963e-03
9.081e-01,5.269e-03
9.091e-01,5.596e-03
9.101e-01,5.945e-03
9.111e-01,6.318e-03
9.120e-01,6.717e-03
9.130e-01,7.143e-03
9.140e-01,7.598e-03
9.150e-01,8.085e-03
9.160e-01,8.607e-03
9.170e-01,9.165e-03
9.179e-01,9.763e-03
9.189e-01,1.040e-02
9.199e-01,1.109e-02
9.209e-01,1.183e-02
9.219e-01,1.262e-02
9.229e-01,1.347e-02
9.238e-01,1.438e-02
9.248e-01,1.536e-02
9.258e-01,1.641e-02
9.268e-01,1.754e-02
9.278e-01,1.876e-02
9.288e-01,2.008e-02
9.297e-01,2.149e-02
9.307e-01,2.302e-02
9.317e-01,2.467e-02
9.327e-01,2.645e-02
9.337e-01,2.837e-02
9.346e-01,3.044e-02
9.356e-01,3.269e-02
9.366e-01,3.512e-02
9.376e-01,3.775e-02
9.386e-01,4.060e-02
9.396e-01,4.370e-02
9.405e-01,4.706e-02
9.415e-01,5.071e-02
9.425e-01,5.467e-02
9.435e-01,5.899e-02
9.445e-01,6.369e-02
9.455e-01,6.882e-02
9.464e-01,7.441e-02
9.474e-01,8.052e-02
9.484e-01,8.720e-02
9.494e-01,9.451e-02
9.504e-01,1.025e-01
9.514e-01,1.113e-01
9.523e-01,1.209e-01
9.533e-01,1.315e-01
9.543e-01,1.432e-01
9.553e-01,1.560e-01
9.563e-01,1.702e-01
9.573e-01,1.858e-01
9.582e-01,2.031e-01
9.592e-01,2.223e-01
9.602e-01,2.436e-01
9.612e-01,2.673e-01
9.622e-01,2.936e-01
9.631e-01,3.230e-01
9.641e-01,3.558e-01
9.651e-01,3.925e-01
9.661e-01,4.337e-01
9.671e-01,4.800e-01
9.681e-01,5.322e-01
9.690e-01,5.912e-01
9.700e-01,6.579e-01
9.710e-01,7.337e-01
9.720e-01,8.199e-01
9.730e-01,9.185e-01
9.740e-01,1.031e+00
9.749e-01,1.161e+00
9.759e-01,1.311e+00
9.769e-01,1.485e+00
9.779e-01,1.687e+00
9.789e-01,1.923e+00
9.799e-01,2.200e+00
9.808e-01,2.529e+00
9.818e-01,2.919e+00
9.828e-01,3.387e+00
9.838e-01,3.952e+00
9.848e-01,4.640e+00
9.858e-01,5.485e+00
9.867e-01,6.537e+00
9.877e-01,7.861e+00
9.887e-01,9.555e+00
9.897e-01,1.176e+01
9.907e-01,1.470e+01
9.916e-01,1.872e+01
9.926e-01,2.442e+01
9.936e-01,3.288e+01
9.946e-01,4.631e+01
9.956e-01,6.994e+01
9.966e-01,1.200e+02
9.975e-01,2.899e+02
9.985e-01,0.000e+00
9.995e-01,0.000e+00
