transmittance,probability_density
1.277e-04,2.669e-02
3.830e-04,4.292e+00
6.383e-04,2.141e+01
8.936e-04,4.747e+01
1.149e-03,7.515e+01
1.404e-03,9.977e+01
1.660e-03,1.194e+02
1.915e-03,1.337e+02
2.170e-03,1.431e+02
2.425e-03,1.483e+02
2.681e-03,1.503e+02
2.936e-03,1.497e+02
3.191e-03,1.472e+02
3.447e-03,1.433e+02
3.702e-03,1.384e+02
3.957e-03,1.328e+02
4.213e-03,1.268e+02
4.468e-03,1.207e+02
4.723e-03,1.145e+02
4.979e-03,1.083e+02
5.234e-03,1.023e+02
5.489e-03,9.648e+01
5.744e-03,9.086e+01
6.000e-03,8.550e+01
6.255e-03,8.039e+01
6.510e-03,7.554e+01
6.766e-03,7.096e+01
7.021e-03,6.664e+01
7.276e-03,6.258e+01
7.532e-03,5.876e+01
7.787e-03,5.517e+01
8.042e-03,5.181e+01
8.298e-03,4.866e+01
8.553e-03,4.571e+01
8.808e-03,4.295e+01
9.064e-03,4.036e+01
9.319e-03,3.794e+01
9.574e-03,3.568e+01
9.829e-03,3.357e+01
1.008e-02,3.159e+01
1.034e-02,2.973e+01
1.060e-02,2.800e+01
1.085e-02,2.638e+01
1.111e-02,2.486e+01
1.136e-02,2.344e+01
1.162e-02,2.210e+01
1.187e-02,2.085e+01
1.213e-02,1.968e+01
1.238e-02,1.859e+01
1.264e-02,1.756e+01
1.289e-02,1.659e+01
1.315e-02,1.569e+01
1.340e-02,1.484e+01
1.366e-02,1.404e+01
1.391e-02,1.329e+01
1.417e-02,1.258e+01
1.443e-02,1.192e+01
1.468e-02,1.129e+01
1.494e-02,1.070e+01
1.519e-02,1.015e+01
1.545e-02,9.629e+00
1.570e-02,9.138e+00
1.596e-02,8.675e+00
1.621e-02,8.239e+00
1.647e-02,7.827e+00
1.672e-02,7.439e+00
1.698e-02,7.072e+00
1.723e-02,6.725e+00
1.749e-02,6.398e+00
1.774e-02,6.089e+00
1.800e-02,5.796e+00
1.825e-02,5.520e+00
1.851e-02,5.258e+00
1.877e-02,5.010e+00
1.902e-02,4.776e+00
1.928e-02,4.553e+00
1.953e-02,4.343e+00
1.979e-02,4.143e+00
2.004e-02,3.954e+00
2.030e-02,3.775e+00
2.055e-02,3.605e+00
2.081e-02,3.443e+00
2.106e-02,3.290e+00
2.132e-02,3.144e+00
2.157e-02,3.006e+00
2.183e-02,2.874e+00
2.208e-02,2.749e+00
2.234e-02,2.630e+00
2.259e-02,2.517e+00
2.285e-02,2.410e+00
2.311e-02,2.307e+00
2.336e-02,2.210e+00
2.362e-02,2.117e+00
2.387e-02,2.029e+00
2.413e-02,1.944e+00
2.438e-02,1.864e+00
2.464e-02,1.787e+00
2.489e-02,1.714e+00
2.515e-02,1.645e+00
2.540e-02,1.578e+00
2.566e-02,1.515e+00
2.591e-02,1.454e+00
2.617e-02,1.397e+00
2.642e-02,1.341e+00
2.668e-02,1.289e+00
2.694e-02,1.238e+00
2.719e-02,1.190e+00
2.745e-02,1.144e+00
2.770e-02,1.100e+00
2.796e-02,1.058e+00
2.821e-02,1.017e+00
2.847e-02,9.788e-01
2.872e-02,9.418e-01
2.898e-02,9.064e-01
2.923e-02,8.726e-01
2.949e-02,8.401e-01
2.974e-02,8.090e-01
3.000e-02,7.792e-01
3.025e-02,7.507e-01
3.051e-02,7.233e-01
3.076e-02,6.971e-01
3.102e-02,6.719e-01
3.128e-02,6.477e-01
3.153e-02,6.246e-01
3.179e-02,6.023e-01
3.204e-02,5.810e-01
3.230e-02,5.605e-01
3.255e-02,5.408e-01
3.281e-02,5.219e-01
3.306e-02,5.037e-01
3.332e-02,4.863e-01
3.357e-02,4.695e-01
3.383e-02,4.534e-01
3.408e-02,4.379e-01
3.434e-02,4.230e-01
3.459e-02,4.087e-01
3.485e-02,3.949e-01
3.511e-02,3.816e-01
3.536e-02,3.689e-01
3.562e-02,3.566e-01
3.587e-02,3.448e-01
3.613e-02,3.334e-01
3.638e-02,3.224e-01
3.664e-02,3.119e-01
3.689e-02,3.017e-01
3.715e-02,2.919e-01
3.740e-02,2.825e-01
3.766e-02,2.734e-01
3.791e-02,2.646e-01
3.817e-02,2.562e-01
3.842e-02,2.480e-01
3.868e-02,2.402e-01
3.893e-02,2.326e-01
3.919e-02,2.253e-01
3.945e-02,2.182e-01
3.970e-02,2.114e-01
3.996e-02,2.049e-01
4.021e-02,1.986e-01
4.047e-02,1.924e-01
4.072e-02,1.865e-01
4.098e-02,1.808e-01
4.123e-02,1.753e-01
4.149e-02,1.700e-01
4.174e-02,1.649e-01
4.200e-02,1.599e-01
4.225e-02,1.551e-01
4.251e-02,1.505e-01
4.276e-02,1.460e-01
4.302e-02,1.417e-01
4.328e-02,1.375e-01
4.353e-02,1.335e-01
4.379e-02,1.295e-01
4.404e-02,1.258e-01
4.430e-02,1.221e-01
4.455e-02,1.186e-01
4.481e-02,1.151e-01
4.506e-02,1.118e-01
4.532e-02,1.086e-01
4.557e-02,1.055e-01
4.583e-02,1.025e-01
4.608e-02,9.960e-02
4.634e-02,9.679e-02
4.659e-02,9.406e-02
4.685e-02,9.142e-02
4.710e-02,8.886e-02
4.736e-02,8.638e-02
4.762e-02,8.398e-02
4.787e-02,8.166e-02
4.813e-02,7.941e-02
4.838e-02,7.722e-02
4.864e-02,7.510e-02
4.889e-02,7.305e-02
4.915e-02,7.106e-02
4.940e-02,6.914e-02
4.966e-02,6.727e-02
4.991e-02,6.545e-02
5.017e-02,6.369e-02
5.042e-02,6.199e-02
5.068e-02,6.033e-02
5.093e-02,5.873e-02
