transmittance,probability_density
1.300e-03,1.036e-05
3.900e-03,1.469e-02
6.500e-03,1.729e-01
9.099e-03,6.405e-01
1.170e-02,1.447e+00
1.430e-02,2.508e+00
1.690e-02,3.706e+00
1.950e-02,4.929e+00
2.210e-02,6.096e+00
2.470e-02,7.152e+00
2.730e-02,8.067e+00
2.990e-02,8.829e+00
3.250e-02,9.437e+00
3.510e-02,9.900e+00
3.770e-02,1.023e+01
4.030e-02,1.044e+01
4.290e-02,1.055e+01
4.550e-02,1.056e+01
4.810e-02,1.051e+01
5.070e-02,1.039e+01
5.330e-02,1.022e+01
5.590e-02,1.001e+01
5.850e-02,9.762e+00
6.110e-02,9.494e+00
6.370e-02,9.209e+00
6.630e-02,8.910e+00
6.890e-02,8.603e+00
7.150e-02,8.292e+00
7.410e-02,7.980e+00
7.670e-02,7.669e+00
7.930e-02,7.362e+00
8.190e-02,7.060e+00
8.450e-02,6.764e+00
8.709e-02,6.475e+00
8.969e-02,6.195e+00
9.229e-02,5.924e+00
9.489e-02,5.662e+00
9.749e-02,5.409e+00
1.001e-01,5.165e+00
1.027e-01,4.932e+00
1.053e-01,4.707e+00
1.079e-01,4.492e+00
1.105e-01,4.286e+00
1.131e-01,4.089e+00
1.157e-01,3.901e+00
1.183e-01,3.721e+00
1.209e-01,3.550e+00
1.235e-01,3.386e+00
1.261e-01,3.230e+00
1.287e-01,3.081e+00
1.313e-01,2.939e+00
1.339e-01,2.804e+00
1.365e-01,2.675e+00
1.391e-01,2.553e+00
1.417e-01,2.436e+00
1.443e-01,2.325e+00
1.469e-01,2.219e+00
1.495e-01,2.119e+00
1.521e-01,2.023e+00
1.547e-01,1.932e+00
1.573e-01,1.845e+00
1.599e-01,1.762e+00
1.625e-01,1.684e+00
1.651e-01,1.609e+00
1.677e-01,1.537e+00
1.703e-01,1.470e+00
1.729e-01,1.405e+00
1.755e-01,1.343e+00
1.781e-01,1.285e+00
1.807e-01,1.229e+00
1.833e-01,1.176e+00
1.859e-01,1.125e+00
1.885e-01,1.077e+00
1.911e-01,1.031e+00
1.937e-01,9.866e-01
1.963e-01,9.448e-01
1.989e-01,9.048e-01
2.015e-01,8.668e-01
2.041e-01,8.304e-01
2.067e-01,7.958e-01
2.093e-01,7.627e-01
2.119e-01,7.312e-01
2.145e-01,7.011e-01
2.171e-01,6.723e-01
2.197e-01,6.449e-01
2.223e-01,6.187e-01
2.249e-01,5.936e-01
2.275e-01,5.697e-01
2.301e-01,5.468e-01
2.327e-01,5.250e-01
2.353e-01,5.041e-01
2.379e-01,4.841e-01
2.405e-01,4.650e-01
2.431e-01,4.467e-01
2.457e-01,4.293e-01
2.483e-01,4.125e-01
2.509e-01,3.965e-01
2.535e-01,3.812e-01
2.561e-01,3.666e-01
2.587e-01,3.525e-01
2.613e-01,3.391e-01
2.639e-01,3.262e-01
2.665e-01,3.139e-01
2.691e-01,3.021e-01
2.717e-01,2.907e-01
2.743e-01,2.799e-01
2.769e-01,2.695e-01
2.795e-01,2.595e-01
2.821e-01,2.499e-01
2.847e-01,2.408e-01
2.873e-01,2.320e-01
2.899e-01,2.235e-01
2.925e-01,2.154e-01
2.951e-01,2.076e-01
2.977e-01,2.001e-01
3.003e-01,1.930e-01
3.029e-01,1.861e-01
3.055e-01,1.795e-01
3.081e-01,1.731e-01
3.107e-01,1.670e-01
3.133e-01,1.612e-01
3.159e-01,1.555e-01
3.185e-01,1.501e-01
3.211e-01,1.449e-01
3.237e-01,1.399e-01
3.263e-01,1.351e-01
3.289e-01,1.304e-01
3.315e-01,1.260e-01
3.341e-01,1.217e-01
3.367e-01,1.176e-01
3.393e-01,1.136e-01
3.419e-01,1.098e-01
3.445e-01,1.061e-01
3.471e-01,1.025e-01
3.497e-01,9.913e-02
3.523e-01,9.584e-02
3.549e-01,9.268e-02
3.575e-01,8.963e-02
3.601e-01,8.669e-02
3.627e-01,8.386e-02
3.653e-01,8.113e-02
3.679e-01,7.850e-02
3.705e-01,7.597e-02
3.731e-01,7.352e-02
3.757e-01,7.116e-02
3.783e-01,6.889e-02
3.809e-01,6.670e-02
3.835e-01,6.458e-02
3.861e-01,6.254e-02
3.887e-01,6.057e-02
3.913e-01,5.867e-02
3.939e-01,5.684e-02
3.965e-01,5.506e-02
3.991e-01,5.335e-02
4.017e-01,5.170e-02
4.043e-01,5.011e-02
4.069e-01,4.857e-02
4.095e-01,4.708e-02
4.121e-01,4.564e-02
4.147e-01,4.425e-02
4.173e-01,4.291e-02
4.199e-01,4.162e-02
4.225e-01,4.036e-02
4.251e-01,3.915e-02
4.277e-01,3.798e-02
4.303e-01,3.685e-02
4.329e-01,3.575e-02
4.355e-01,3.469e-02
4.381e-01,3.367e-02
4.407e-01,3.268e-02
4.433e-01,3.172e-02
4.459e-01,3.079e-02
4.485e-01,2.990e-02
4.511e-01,2.903e-02
4.537e-01,2.819e-02
4.563e-01,2.738e-02
4.589e-01,2.659e-02
4.615e-01,2.583e-02
4.641e-01,2.509e-02
4.667e-01,2.437e-02
4.693e-01,2.368e-02
4.719e-01,2.301e-02
4.745e-01,2.236e-02
4.771e-01,2.173e-02
4.797e-01,2.112e-02
4.823e-01,2.053e-02
4.849e-01,1.996e-02
4.875e-01,1.940e-02
4.901e-01,1.887e-02
4.927e-01,1.835e-02
4.953e-01,1.784e-02
4.979e-01,1.735e-02
5.005e-01,1.688e-02
5.031e-01,1.642e-02
5.057e-01,1.597e-02
5.083e-01,1.554e-02
5.109e-01,1.512e-02
5.135e-01,1.471e-02
5.161e-01,1.431e-02
5.187e-01,1.393e-02
