transmittance,probability_density
6.564e-04,4.756e-04
1.969e-03,2.050e-01
3.282e-03,1.500e+00
4.595e-03,4.171e+00
5.908e-03,7.713e+00
7.221e-03,1.150e+01
8.534e-03,1.506e+01
9.846e-03,1.816e+01
1.116e-02,2.066e+01
1.247e-02,2.257e+01
1.378e-02,2.392e+01
1.510e-02,2.478e+01
1.641e-02,2.523e+01
1.772e-02,2.532e+01
1.904e-02,2.514e+01
2.035e-02,2.474e+01
2.166e-02,2.418e+01
2.297e-02,2.349e+01
2.429e-02,2.271e+01
2.560e-02,2.187e+01
2.691e-02,2.099e+01
2.823e-02,2.009e+01
2.954e-02,1.918e+01
3.085e-02,1.828e+01
3.216e-02,1.740e+01
3.348e-02,1.653e+01
3.479e-02,1.570e+01
3.610e-02,1.489e+01
3.742e-02,1.411e+01
3.873e-02,1.337e+01
4.004e-02,1.265e+01
4.135e-02,1.198e+01
4.267e-02,1.133e+01
4.398e-02,1.072e+01
4.529e-02,1.014e+01
4.661e-02,9.587e+00
4.792e-02,9.067e+00
4.923e-02,8.575e+00
5.054e-02,8.110e+00
5.186e-02,7.670e+00
5.317e-02,7.256e+00
5.448e-02,6.865e+00
5.580e-02,6.496e+00
5.711e-02,6.147e+00
5.842e-02,5.819e+00
5.973e-02,5.510e+00
6.105e-02,5.218e+00
6.236e-02,4.942e+00
6.367e-02,4.682e+00
6.499e-02,4.438e+00
6.630e-02,4.206e+00
6.761e-02,3.989e+00
6.892e-02,3.783e+00
7.024e-02,3.589e+00
7.155e-02,3.406e+00
7.286e-02,3.233e+00
7.418e-02,3.069e+00
7.549e-02,2.915e+00
7.680e-02,2.770e+00
7.811e-02,2.632e+00
7.943e-02,2.502e+00
8.074e-02,2.379e+00
8.205e-02,2.262e+00
8.337e-02,2.152e+00
8.468e-02,2.048e+00
8.599e-02,1.950e+00
8.730e-02,1.857e+00
8.862e-02,1.768e+00
8.993e-02,1.685e+00
9.124e-02,1.605e+00
9.256e-02,1.530e+00
9.387e-02,1.459e+00
9.518e-02,1.392e+00
9.649e-02,1.328e+00
9.781e-02,1.267e+00
9.912e-02,1.209e+00
1.004e-01,1.155e+00
1.017e-01,1.103e+00
1.031e-01,1.053e+00
1.044e-01,1.006e+00
1.057e-01,9.618e-01
1.070e-01,9.194e-01
1.083e-01,8.791e-01
1.096e-01,8.408e-01
1.109e-01,8.044e-01
1.122e-01,7.697e-01
1.136e-01,7.367e-01
1.149e-01,7.053e-01
1.162e-01,6.754e-01
1.175e-01,6.468e-01
1.188e-01,6.197e-01
1.201e-01,5.938e-01
1.214e-01,5.691e-01
1.228e-01,5.456e-01
1.241e-01,5.231e-01
1.254e-01,5.017e-01
1.267e-01,4.813e-01
1.280e-01,4.618e-01
1.293e-01,4.432e-01
1.306e-01,4.254e-01
1.319e-01,4.084e-01
1.333e-01,3.922e-01
1.346e-01,3.767e-01
1.359e-01,3.619e-01
1.372e-01,3.477e-01
1.385e-01,3.341e-01
1.398e-01,3.212e-01
1.411e-01,3.088e-01
1.424e-01,2.969e-01
1.438e-01,2.856e-01
1.451e-01,2.747e-01
1.464e-01,2.643e-01
1.477e-01,2.544e-01
1.490e-01,2.448e-01
1.503e-01,2.357e-01
1.516e-01,2.269e-01
1.529e-01,2.185e-01
1.543e-01,2.105e-01
1.556e-01,2.027e-01
1.569e-01,1.953e-01
1.582e-01,1.882e-01
1.595e-01,1.814e-01
1.608e-01,1.749e-01
1.621e-01,1.686e-01
1.634e-01,1.626e-01
1.648e-01,1.568e-01
1.661e-01,1.513e-01
1.674e-01,1.459e-01
1.687e-01,1.408e-01
1.700e-01,1.359e-01
1.713e-01,1.312e-01
1.726e-01,1.266e-01
1.740e-01,1.223e-01
1.753e-01,1.181e-01
1.766e-01,1.140e-01
1.779e-01,1.101e-01
1.792e-01,1.064e-01
1.805e-01,1.028e-01
1.818e-01,9.934e-02
1.831e-01,9.601e-02
1.845e-01,9.280e-02
1.858e-01,8.972e-02
1.871e-01,8.675e-02
1.884e-01,8.388e-02
1.897e-01,8.113e-02
1.910e-01,7.847e-02
1.923e-01,7.591e-02
1.936e-01,7.345e-02
1.950e-01,7.107e-02
1.963e-01,6.878e-02
1.976e-01,6.658e-02
1.989e-01,6.445e-02
2.002e-01,6.239e-02
2.015e-01,6.042e-02
2.028e-01,5.851e-02
2.041e-01,5.666e-02
2.055e-01,5.489e-02
2.068e-01,5.317e-02
2.081e-01,5.151e-02
2.094e-01,4.992e-02
2.107e-01,4.837e-02
2.120e-01,4.688e-02
2.133e-01,4.544e-02
2.147e-01,4.406e-02
2.160e-01,4.271e-02
2.173e-01,4.142e-02
2.186e-01,4.016e-02
2.199e-01,3.895e-02
2.212e-01,3.778e-02
2.225e-01,3.665e-02
2.238e-01,3.556e-02
2.252e-01,3.450e-02
2.265e-01,3.348e-02
2.278e-01,3.249e-02
2.291e-01,3.154e-02
2.304e-01,3.061e-02
2.317e-01,2.972e-02
2.330e-01,2.886e-02
2.343e-01,2.802e-02
2.357e-01,2.721e-02
2.370e-01,2.642e-02
2.383e-01,2.567e-02
2.396e-01,2.493e-02
2.409e-01,2.422e-02
2.422e-01,2.353e-02
2.435e-01,2.287e-02
2.448e-01,2.222e-02
2.462e-01,2.159e-02
2.475e-01,2.099e-02
2.488e-01,2.040e-02
2.501e-01,1.983e-02
2.514e-01,1.928e-02
2.527e-01,1.875e-02
2.540e-01,1.823e-02
2.553e-01,1.773e-02
2.567e-01,1.724e-02
2.580e-01,1.677e-02
2.593e-01,1.631e-02
2.606e-01,1.587e-02
2.619e-01,1.544e-02
