transmittance,probability_density
1.495e-03,1.340e-06
4.486e-03,3.946e-03
7.477e-03,6.194e-02
1.047e-02,2.723e-01
1.346e-02,6.925e-01
1.645e-02,1.312e+00
1.944e-02,2.080e+00
2.243e-02,2.930e+00
2.542e-02,3.801e+00
2.841e-02,4.646e+00
3.140e-02,5.429e+00
3.440e-02,6.130e+00
3.739e-02,6.736e+00
4.038e-02,7.243e+00
4.337e-02,7.653e+00
4.636e-02,7.970e+00
4.935e-02,8.201e+00
5.234e-02,8.354e+00
5.533e-02,8.439e+00
5.832e-02,8.464e+00
6.131e-02,8.437e+00
6.430e-02,8.366e+00
6.730e-02,8.257e+00
7.029e-02,8.118e+00
7.328e-02,7.953e+00
7.627e-02,7.769e+00
7.926e-02,7.569e+00
8.225e-02,7.358e+00
8.524e-02,7.137e+00
8.823e-02,6.911e+00
9.122e-02,6.682e+00
9.421e-02,6.451e+00
9.720e-02,6.221e+00
1.002e-01,5.993e+00
1.032e-01,5.767e+00
1.062e-01,5.545e+00
1.092e-01,5.328e+00
1.122e-01,5.116e+00
1.151e-01,4.910e+00
1.181e-01,4.709e+00
1.211e-01,4.515e+00
1.241e-01,4.327e+00
1.271e-01,4.146e+00
1.301e-01,3.971e+00
1.331e-01,3.802e+00
1.361e-01,3.640e+00
1.391e-01,3.485e+00
1.421e-01,3.335e+00
1.451e-01,3.192e+00
1.480e-01,3.054e+00
1.510e-01,2.922e+00
1.540e-01,2.796e+00
1.570e-01,2.675e+00
1.600e-01,2.559e+00
1.630e-01,2.449e+00
1.660e-01,2.343e+00
1.690e-01,2.242e+00
1.720e-01,2.145e+00
1.750e-01,2.053e+00
1.780e-01,1.965e+00
1.809e-01,1.880e+00
1.839e-01,1.800e+00
1.869e-01,1.723e+00
1.899e-01,1.649e+00
1.929e-01,1.579e+00
1.959e-01,1.512e+00
1.989e-01,1.448e+00
2.019e-01,1.387e+00
2.049e-01,1.329e+00
2.079e-01,1.273e+00
2.109e-01,1.220e+00
2.138e-01,1.169e+00
2.168e-01,1.120e+00
2.198e-01,1.074e+00
2.228e-01,1.029e+00
2.258e-01,9.869e-01
2.288e-01,9.464e-01
2.318e-01,9.077e-01
2.348e-01,8.707e-01
2.378e-01,8.354e-01
2.408e-01,8.016e-01
2.438e-01,7.692e-01
2.467e-01,7.383e-01
2.497e-01,7.088e-01
2.527e-01,6.805e-01
2.557e-01,6.535e-01
2.587e-01,6.276e-01
2.617e-01,6.029e-01
2.647e-01,5.792e-01
2.677e-01,5.565e-01
2.707e-01,5.348e-01
2.737e-01,5.140e-01
2.767e-01,4.941e-01
2.796e-01,4.751e-01
2.826e-01,4.569e-01
2.856e-01,4.394e-01
2.886e-01,4.226e-01
2.916e-01,4.066e-01
2.946e-01,3.912e-01
2.976e-01,3.765e-01
3.006e-01,3.623e-01
3.036e-01,3.488e-01
3.066e-01,3.358e-01
3.096e-01,3.233e-01
3.125e-01,3.114e-01
3.155e-01,2.999e-01
3.185e-01,2.889e-01
3.215e-01,2.784e-01
3.245e-01,2.682e-01
3.275e-01,2.585e-01
3.305e-01,2.491e-01
3.335e-01,2.402e-01
3.365e-01,2.316e-01
3.395e-01,2.233e-01
3.425e-01,2.153e-01
3.454e-01,2.077e-01
3.484e-01,2.004e-01
3.514e-01,1.933e-01
3.544e-01,1.865e-01
3.574e-01,1.800e-01
3.604e-01,1.738e-01
3.634e-01,1.677e-01
3.664e-01,1.619e-01
3.694e-01,1.564e-01
3.724e-01,1.510e-01
3.754e-01,1.458e-01
3.783e-01,1.409e-01
3.813e-01,1.361e-01
3.843e-01,1.315e-01
3.873e-01,1.271e-01
3.903e-01,1.228e-01
3.933e-01,1.187e-01
3.963e-01,1.147e-01
3.993e-01,1.109e-01
4.023e-01,1.072e-01
4.053e-01,1.037e-01
4.083e-01,1.003e-01
4.112e-01,9.702e-02
4.142e-01,9.385e-02
4.172e-01,9.080e-02
4.202e-01,8.786e-02
4.232e-01,8.502e-02
4.262e-01,8.228e-02
4.292e-01,7.964e-02
4.322e-01,7.710e-02
4.352e-01,7.464e-02
4.382e-01,7.227e-02
4.412e-01,6.999e-02
4.441e-01,6.778e-02
4.471e-01,6.565e-02
4.501e-01,6.359e-02
4.531e-01,6.161e-02
4.561e-01,5.969e-02
4.591e-01,5.784e-02
4.621e-01,5.605e-02
4.651e-01,5.433e-02
4.681e-01,5.266e-02
4.711e-01,5.105e-02
4.741e-01,4.949e-02
4.770e-01,4.799e-02
4.800e-01,4.653e-02
4.830e-01,4.513e-02
4.860e-01,4.377e-02
4.890e-01,4.245e-02
4.920e-01,4.118e-02
4.950e-01,3.995e-02
4.980e-01,3.877e-02
5.010e-01,3.762e-02
5.040e-01,3.651e-02
5.070e-01,3.543e-02
5.099e-01,3.439e-02
5.129e-01,3.338e-02
5.159e-01,3.241e-02
5.189e-01,3.147e-02
5.219e-01,3.056e-02
5.249e-01,2.967e-02
5.279e-01,2.882e-02
5.309e-01,2.799e-02
5.339e-01,2.719e-02
5.369e-01,2.641e-02
5.399e-01,2.566e-02
5.428e-01,2.493e-02
5.458e-01,2.423e-02
5.488e-01,2.354e-02
5.518e-01,2.288e-02
5.548e-01,2.224e-02
5.578e-01,2.162e-02
5.608e-01,2.101e-02
5.638e-01,2.043e-02
5.668e-01,1.986e-02
5.698e-01,1.931e-02
5.728e-01,1.878e-02
5.757e-01,1.827e-02
5.787e-01,1.776e-02
5.817e-01,1.728e-02
5.847e-01,1.681e-02
5.877e-01,1.635e-02
5.907e-01,1.591e-02
5.937e-01,1.548e-02
5.967e-01,1.506e-02
