transmittance,probability_density
1.682e-03,1.622e-07
5.047e-03,1.030e-03
8.412e-03,2.185e-02
1.178e-02,1.148e-01
1.514e-02,3.300e-01
1.851e-02,6.855e-01
2.187e-02,1.168e+00
2.524e-02,1.744e+00
2.860e-02,2.377e+00
3.197e-02,3.029e+00
3.533e-02,3.670e+00
3.870e-02,4.276e+00
4.206e-02,4.832e+00
4.543e-02,5.328e+00
4.879e-02,5.757e+00
5.216e-02,6.118e+00
5.552e-02,6.413e+00
5.889e-02,6.644e+00
6.225e-02,6.817e+00
6.562e-02,6.935e+00
6.898e-02,7.005e+00
7.235e-02,7.032e+00
7.571e-02,7.020e+00
7.908e-02,6.976e+00
8.244e-02,6.903e+00
8.580e-02,6.806e+00
8.917e-02,6.690e+00
9.253e-02,6.557e+00
9.590e-02,6.410e+00
9.926e-02,6.253e+00
1.026e-01,6.088e+00
1.060e-01,5.916e+00
1.094e-01,5.741e+00
1.127e-01,5.563e+00
1.161e-01,5.383e+00
1.195e-01,5.204e+00
1.228e-01,5.026e+00
1.262e-01,4.849e+00
1.295e-01,4.675e+00
1.329e-01,4.504e+00
1.363e-01,4.337e+00
1.396e-01,4.173e+00
1.430e-01,4.013e+00
1.464e-01,3.858e+00
1.497e-01,3.708e+00
1.531e-01,3.562e+00
1.565e-01,3.420e+00
1.598e-01,3.284e+00
1.632e-01,3.152e+00
1.666e-01,3.025e+00
1.699e-01,2.902e+00
1.733e-01,2.784e+00
1.767e-01,2.671e+00
1.800e-01,2.561e+00
1.834e-01,2.456e+00
1.868e-01,2.356e+00
1.901e-01,2.259e+00
1.935e-01,2.166e+00
1.968e-01,2.077e+00
2.002e-01,1.991e+00
2.036e-01,1.910e+00
2.069e-01,1.831e+00
2.103e-01,1.756e+00
2.137e-01,1.684e+00
2.170e-01,1.615e+00
2.204e-01,1.549e+00
2.238e-01,1.485e+00
2.271e-01,1.425e+00
2.305e-01,1.367e+00
2.339e-01,1.311e+00
2.372e-01,1.258e+00
2.406e-01,1.207e+00
2.440e-01,1.158e+00
2.473e-01,1.111e+00
2.507e-01,1.067e+00
2.540e-01,1.024e+00
2.574e-01,9.828e-01
2.608e-01,9.436e-01
2.641e-01,9.060e-01
2.675e-01,8.700e-01
2.709e-01,8.356e-01
2.742e-01,8.026e-01
2.776e-01,7.710e-01
2.810e-01,7.407e-01
2.843e-01,7.118e-01
2.877e-01,6.840e-01
2.911e-01,6.574e-01
2.944e-01,6.319e-01
2.978e-01,6.075e-01
3.012e-01,5.841e-01
3.045e-01,5.617e-01
3.079e-01,5.402e-01
3.113e-01,5.196e-01
3.146e-01,4.998e-01
3.180e-01,4.809e-01
3.213e-01,4.627e-01
3.247e-01,4.453e-01
3.281e-01,4.286e-01
3.314e-01,4.126e-01
3.348e-01,3.972e-01
3.382e-01,3.825e-01
3.415e-01,3.683e-01
3.449e-01,3.547e-01
3.483e-01,3.417e-01
3.516e-01,3.292e-01
3.550e-01,3.171e-01
3.584e-01,3.056e-01
3.617e-01,2.945e-01
3.651e-01,2.839e-01
3.685e-01,2.737e-01
3.718e-01,2.638e-01
3.752e-01,2.544e-01
3.786e-01,2.453e-01
3.819e-01,2.366e-01
3.853e-01,2.282e-01
3.886e-01,2.202e-01
3.920e-01,2.125e-01
3.954e-01,2.050e-01
3.987e-01,1.979e-01
4.021e-01,1.910e-01
4.055e-01,1.843e-01
4.088e-01,1.780e-01
4.122e-01,1.718e-01
4.156e-01,1.659e-01
4.189e-01,1.603e-01
4.223e-01,1.548e-01
4.257e-01,1.495e-01
4.290e-01,1.445e-01
4.324e-01,1.396e-01
4.358e-01,1.349e-01
4.391e-01,1.304e-01
4.425e-01,1.260e-01
4.458e-01,1.218e-01
4.492e-01,1.178e-01
4.526e-01,1.139e-01
4.559e-01,1.101e-01
4.593e-01,1.065e-01
4.627e-01,1.030e-01
4.660e-01,9.966e-02
4.694e-01,9.641e-02
4.728e-01,9.329e-02
4.761e-01,9.027e-02
4.795e-01,8.736e-02
4.829e-01,8.455e-02
4.862e-01,8.185e-02
4.896e-01,7.923e-02
4.930e-01,7.671e-02
4.963e-01,7.428e-02
4.997e-01,7.193e-02
5.031e-01,6.966e-02
5.064e-01,6.748e-02
5.098e-01,6.536e-02
5.131e-01,6.332e-02
5.165e-01,6.135e-02
5.199e-01,5.945e-02
5.232e-01,5.761e-02
5.266e-01,5.583e-02
5.300e-01,5.412e-02
5.333e-01,5.246e-02
5.367e-01,5.086e-02
5.401e-01,4.931e-02
5.434e-01,4.781e-02
5.468e-01,4.637e-02
5.502e-01,4.497e-02
5.535e-01,4.361e-02
5.569e-01,4.231e-02
5.603e-01,4.104e-02
5.636e-01,3.982e-02
5.670e-01,3.863e-02
5.704e-01,3.749e-02
5.737e-01,3.638e-02
5.771e-01,3.531e-02
5.804e-01,3.427e-02
5.838e-01,3.327e-02
5.872e-01,3.230e-02
5.905e-01,3.136e-02
5.939e-01,3.045e-02
5.973e-01,2.957e-02
6.006e-01,2.871e-02
6.040e-01,2.789e-02
6.074e-01,2.709e-02
6.107e-01,2.631e-02
6.141e-01,2.556e-02
6.175e-01,2.484e-02
6.208e-01,2.413e-02
6.242e-01,2.345e-02
6.276e-01,2.279e-02
6.309e-01,2.215e-02
6.343e-01,2.153e-02
6.376e-01,2.092e-02
6.410e-01,2.034e-02
6.444e-01,1.978e-02
6.477e-01,1.923e-02
6.511e-01,1.870e-02
6.545e-01,1.818e-02
6.578e-01,1.768e-02
6.612e-01,1.720e-02
6.646e-01,1.673e-02
6.679e-01,1.627e-02
6.713e-01,1.583e-02
