transmittance,probability_density
2.500e-03,4.732e-14
7.500e-03,8.051e-08
1.250e-02,1.499e-05
1.750e-02,2.842e-04
2.250e-02,1.974e-03
2.750e-02,7.909e-03
3.250e-02,2.255e-02
3.750e-02,5.118e-02
4.250e-02,9.880e-02
4.750e-02,1.693e-01
5.250e-02,2.648e-01
5.750e-02,3.856e-01
6.250e-02,5.306e-01
6.750e-02,6.971e-01
7.250e-02,8.816e-01
7.750e-02,1.080e+00
8.250e-02,1.288e+00
8.750e-02,1.501e+00
9.250e-02,1.715e+00
9.750e-02,1.927e+00
1.025e-01,2.133e+00
1.075e-01,2.331e+00
1.125e-01,2.517e+00
1.175e-01,2.692e+00
1.225e-01,2.852e+00
1.275e-01,2.998e+00
1.325e-01,3.129e+00
1.375e-01,3.244e+00
1.425e-01,3.344e+00
1.475e-01,3.429e+00
1.525e-01,3.499e+00
1.575e-01,3.555e+00
1.625e-01,3.597e+00
1.675e-01,3.627e+00
1.725e-01,3.645e+00
1.775e-01,3.651e+00
1.825e-01,3.648e+00
1.875e-01,3.635e+00
1.925e-01,3.614e+00
1.975e-01,3.584e+00
2.025e-01,3.548e+00
2.075e-01,3.506e+00
2.125e-01,3.458e+00
2.175e-01,3.406e+00
2.225e-01,3.349e+00
2.275e-01,3.289e+00
2.325e-01,3.225e+00
2.375e-01,3.159e+00
2.425e-01,3.091e+00
2.475e-01,3.022e+00
2.525e-01,2.951e+00
2.575e-01,2.879e+00
2.625e-01,2.806e+00
2.675e-01,2.733e+00
2.725e-01,2.660e+00
2.775e-01,2.588e+00
2.825e-01,2.516e+00
2.875e-01,2.444e+00
2.925e-01,2.373e+00
2.975e-01,2.303e+00
3.025e-01,2.234e+00
3.075e-01,2.165e+00
3.125e-01,2.099e+00
3.175e-01,2.033e+00
3.225e-01,1.969e+00
3.275e-01,1.906e+00
3.325e-01,1.844e+00
3.375e-01,1.784e+00
3.425e-01,1.726e+00
3.475e-01,1.669e+00
3.525e-01,1.613e+00
3.575e-01,1.559e+00
3.625e-01,1.507e+00
3.675e-01,1.455e+00
3.725e-01,1.406e+00
3.775e-01,1.358e+00
3.825e-01,1.311e+00
3.875e-01,1.266e+00
3.925e-01,1.222e+00
3.975e-01,1.179e+00
4.025e-01,1.138e+00
4.075e-01,1.098e+00
4.125e-01,1.060e+00
4.175e-01,1.023e+00
4.225e-01,9.867e-01
4.275e-01,9.519e-01
4.325e-01,9.183e-01
4.375e-01,8.858e-01
4.425e-01,8.544e-01
4.475e-01,8.241e-01
4.525e-01,7.948e-01
4.575e-01,7.666e-01
4.625e-01,7.393e-01
4.675e-01,7.130e-01
4.725e-01,6.877e-01
4.775e-01,6.632e-01
4.825e-01,6.396e-01
4.875e-01,6.168e-01
4.925e-01,5.948e-01
4.975e-01,5.737e-01
5.025e-01,5.532e-01
5.075e-01,5.336e-01
5.125e-01,5.146e-01
5.175e-01,4.963e-01
5.225e-01,4.787e-01
5.275e-01,4.617e-01
5.325e-01,4.453e-01
5.375e-01,4.295e-01
5.425e-01,4.143e-01
5.475e-01,3.997e-01
5.525e-01,3.855e-01
5.575e-01,3.719e-01
5.625e-01,3.588e-01
5.675e-01,3.462e-01
5.725e-01,3.340e-01
5.775e-01,3.222e-01
5.825e-01,3.109e-01
5.875e-01,3.000e-01
5.925e-01,2.895e-01
5.975e-01,2.794e-01
6.025e-01,2.696e-01
6.075e-01,2.602e-01
6.125e-01,2.512e-01
6.175e-01,2.425e-01
6.225e-01,2.340e-01
6.275e-01,2.259e-01
6.325e-01,2.181e-01
6.375e-01,2.106e-01
6.425e-01,2.033e-01
6.475e-01,1.963e-01
6.525e-01,1.896e-01
6.575e-01,1.831e-01
6.625e-01,1.768e-01
6.675e-01,1.708e-01
6.725e-01,1.649e-01
6.775e-01,1.593e-01
6.825e-01,1.539e-01
6.875e-01,1.487e-01
6.925e-01,1.436e-01
6.975e-01,1.388e-01
7.025e-01,1.341e-01
7.075e-01,1.296e-01
7.125e-01,1.252e-01
7.175e-01,1.210e-01
7.225e-01,1.170e-01
7.275e-01,1.131e-01
7.325e-01,1.093e-01
7.375e-01,1.057e-01
7.425e-01,1.022e-01
7.475e-01,9.876e-02
7.525e-01,9.550e-02
7.575e-01,9.234e-02
7.625e-01,8.930e-02
7.675e-01,8.636e-02
7.725e-01,8.353e-02
7.775e-01,8.079e-02
7.825e-01,7.815e-02
7.875e-01,7.560e-02
7.925e-01,7.314e-02
7.975e-01,7.076e-02
8.025e-01,6.846e-02
8.075e-01,6.625e-02
8.125e-01,6.411e-02
8.175e-01,6.204e-02
8.225e-01,6.005e-02
8.275e-01,5.812e-02
8.325e-01,5.626e-02
8.375e-01,5.446e-02
8.425e-01,5.272e-02
8.475e-01,5.104e-02
8.525e-01,4.942e-02
8.575e-01,4.786e-02
8.625e-01,4.634e-02
8.675e-01,4.488e-02
8.725e-01,4.347e-02
8.775e-01,4.210e-02
8.825e-01,4.078e-02
8.875e-01,3.950e-02
8.925e-01,3.827e-02
8.975e-01,3.708e-02
9.025e-01,3.592e-02
9.075e-01,3.481e-02
9.125e-01,3.373e-02
9.175e-01,3.269e-02
9.225e-01,3.168e-02
9.275e-01,3.070e-02
9.325e-01,2.976e-02
9.375e-01,2.885e-02
9.425e-01,2.796e-02
9.475e-01,2.711e-02
9.525e-01,2.628e-02
9.575e-01,2.549e-02
9.625e-01,2.471e-02
9.675e-01,2.396e-02
9.725e-01,2.324e-02
9.775e-01,2.254e-02
9.825e-01,2.186e-02
9.875e-01,2.121e-02
9.925e-01,2.057e-02
9.975e-01,1.995e-02
