transmittance,probability_density
2.500e-03,3.235e-16
7.500e-03,3.190e-09
1.250e-02,1.194e-06
1.750e-02,3.438e-05
2.250e-02,3.194e-04
2.750e-02,1.594e-03
3.250e-02,5.406e-03
3.750e-02,1.415e-02
4.250e-02,3.078e-02
4.750e-02,5.842e-02
5.250e-02,9.989e-02
5.750e-02,1.574e-01
6.250e-02,2.322e-01
6.750e-02,3.248e-01
7.250e-02,4.347e-01
7.750e-02,5.606e-01
8.250e-02,7.008e-01
8.750e-02,8.529e-01
9.250e-02,1.014e+00
9.750e-02,1.183e+00
1.025e-01,1.355e+00
1.075e-01,1.529e+00
1.125e-01,1.702e+00
1.175e-01,1.872e+00
1.225e-01,2.037e+00
1.275e-01,2.195e+00
1.325e-01,2.345e+00
1.375e-01,2.487e+00
1.425e-01,2.618e+00
1.475e-01,2.739e+00
1.525e-01,2.848e+00
1.575e-01,2.947e+00
1.625e-01,3.034e+00
1.675e-01,3.110e+00
1.725e-01,3.174e+00
1.775e-01,3.229e+00
1.825e-01,3.272e+00
1.875e-01,3.306e+00
1.925e-01,3.330e+00
1.975e-01,3.346e+00
2.025e-01,3.353e+00
2.075e-01,3.352e+00
2.125e-01,3.344e+00
2.175e-01,3.329e+00
2.225e-01,3.308e+00
2.275e-01,3.281e+00
2.325e-01,3.249e+00
2.375e-01,3.213e+00
2.425e-01,3.172e+00
2.475e-01,3.128e+00
2.525e-01,3.081e+00
2.575e-01,3.030e+00
2.625e-01,2.977e+00
2.675e-01,2.922e+00
2.725e-01,2.866e+00
2.775e-01,2.808e+00
2.825e-01,2.748e+00
2.875e-01,2.688e+00
2.925e-01,2.627e+00
2.975e-01,2.566e+00
3.025e-01,2.504e+00
3.075e-01,2.442e+00
3.125e-01,2.381e+00
3.175e-01,2.319e+00
3.225e-01,2.258e+00
3.275e-01,2.198e+00
3.325e-01,2.138e+00
3.375e-01,2.079e+00
3.425e-01,2.021e+00
3.475e-01,1.963e+00
3.525e-01,1.907e+00
3.575e-01,1.851e+00
3.625e-01,1.797e+00
3.675e-01,1.743e+00
3.725e-01,1.691e+00
3.775e-01,1.640e+00
3.825e-01,1.590e+00
3.875e-01,1.541e+00
3.925e-01,1.493e+00
3.975e-01,1.446e+00
4.025e-01,1.401e+00
4.075e-01,1.357e+00
4.125e-01,1.314e+00
4.175e-01,1.272e+00
4.225e-01,1.231e+00
4.275e-01,1.191e+00
4.325e-01,1.153e+00
4.375e-01,1.115e+00
4.425e-01,1.079e+00
4.475e-01,1.044e+00
4.525e-01,1.009e+00
4.575e-01,9.762e-01
4.625e-01,9.440e-01
4.675e-01,9.128e-01
4.725e-01,8.826e-01
4.775e-01,8.533e-01
4.825e-01,8.249e-01
4.875e-01,7.975e-01
4.925e-01,7.709e-01
4.975e-01,7.451e-01
5.025e-01,7.202e-01
5.075e-01,6.961e-01
5.125e-01,6.728e-01
5.175e-01,6.502e-01
5.225e-01,6.284e-01
5.275e-01,6.073e-01
5.325e-01,5.869e-01
5.375e-01,5.671e-01
5.425e-01,5.481e-01
5.475e-01,5.296e-01
5.525e-01,5.118e-01
5.575e-01,4.946e-01
5.625e-01,4.780e-01
5.675e-01,4.619e-01
5.725e-01,4.464e-01
5.775e-01,4.313e-01
5.825e-01,4.168e-01
5.875e-01,4.028e-01
5.925e-01,3.893e-01
5.975e-01,3.762e-01
6.025e-01,3.636e-01
6.075e-01,3.514e-01
6.125e-01,3.397e-01
6.175e-01,3.283e-01
6.225e-01,3.173e-01
6.275e-01,3.067e-01
6.325e-01,2.965e-01
6.375e-01,2.866e-01
6.425e-01,2.770e-01
6.475e-01,2.678e-01
6.525e-01,2.589e-01
6.575e-01,2.503e-01
6.625e-01,2.420e-01
6.675e-01,2.339e-01
6.725e-01,2.262e-01
6.775e-01,2.187e-01
6.825e-01,2.115e-01
6.875e-01,2.045e-01
6.925e-01,1.977e-01
6.975e-01,1.912e-01
7.025e-01,1.849e-01
7.075e-01,1.789e-01
7.125e-01,1.730e-01
7.175e-01,1.673e-01
7.225e-01,1.619e-01
7.275e-01,1.566e-01
7.325e-01,1.515e-01
7.375e-01,1.465e-01
7.425e-01,1.418e-01
7.475e-01,1.372e-01
7.525e-01,1.327e-01
7.575e-01,1.284e-01
7.625e-01,1.243e-01
7.675e-01,1.203e-01
7.725e-01,1.164e-01
7.775e-01,1.127e-01
7.825e-01,1.090e-01
7.875e-01,1.055e-01
7.925e-01,1.022e-01
7.975e-01,9.889e-02
8.025e-01,9.574e-02
8.075e-01,9.269e-02
8.125e-01,8.974e-02
8.175e-01,8.689e-02
8.225e-01,8.414e-02
8.275e-01,8.147e-02
8.325e-01,7.890e-02
8.375e-01,7.641e-02
8.425e-01,7.401e-02
8.475e-01,7.168e-02
8.525e-01,6.943e-02
8.575e-01,6.726e-02
8.625e-01,6.515e-02
8.675e-01,6.312e-02
8.725e-01,6.115e-02
8.775e-01,5.925e-02
8.825e-01,5.741e-02
8.875e-01,5.563e-02
8.925e-01,5.391e-02
8.975e-01,5.225e-02
9.025e-01,5.063e-02
9.075e-01,4.908e-02
9.125e-01,4.757e-02
9.175e-01,4.611e-02
9.225e-01,4.470e-02
9.275e-01,4.333e-02
9.325e-01,4.201e-02
9.375e-01,4.073e-02
9.425e-01,3.949e-02
9.475e-01,3.830e-02
9.525e-01,3.714e-02
9.575e-01,3.601e-02
9.625e-01,3.493e-02
9.675e-01,3.388e-02
9.725e-01,3.286e-02
9.775e-01,3.187e-02
9.825e-01,3.092e-02
9.875e-01,2.999e-02
9.925e-01,2.910e-02
9.975e-01,2.823e-02
