transmittance,probability_density
2.500e-03,5.457e-28
7.500e-03,6.928e-17
1.250e-02,1.095e-12
1.750e-02,2.959e-10
2.250e-02,1.301e-08
2.750e-02,2.088e-07
3.250e-02,1.783e-06
3.750e-02,9.936e-06
4.250e-02,4.076e-05
4.750e-02,1.331e-04
5.250e-02,3.647e-04
5.750e-02,8.699e-04
6.250e-02,1.855e-03
6.750e-02,3.610e-03
7.250e-02,6.510e-03
7.750e-02,1.101e-02
8.250e-02,1.763e-02
8.750e-02,2.692e-02
9.250e-02,3.949e-02
9.750e-02,5.589e-02
1.025e-01,7.668e-02
1.075e-01,1.023e-01
1.125e-01,1.333e-01
1.175e-01,1.698e-01
1.225e-01,2.120e-01
1.275e-01,2.602e-01
1.325e-01,3.143e-01
1.375e-01,3.740e-01
1.425e-01,4.393e-01
1.475e-01,5.098e-01
1.525e-01,5.851e-01
1.575e-01,6.648e-01
1.625e-01,7.482e-01
1.675e-01,8.349e-01
1.725e-01,9.243e-01
1.775e-01,1.016e+00
1.825e-01,1.109e+00
1.875e-01,1.202e+00
1.925e-01,1.296e+00
1.975e-01,1.389e+00
2.025e-01,1.482e+00
2.075e-01,1.573e+00
2.125e-01,1.662e+00
2.175e-01,1.749e+00
2.225e-01,1.833e+00
2.275e-01,1.914e+00
2.325e-01,1.991e+00
2.375e-01,2.065e+00
2.425e-01,2.135e+00
2.475e-01,2.200e+00
2.525e-01,2.262e+00
2.575e-01,2.319e+00
2.625e-01,2.371e+00
2.675e-01,2.419e+00
2.725e-01,2.462e+00
2.775e-01,2.501e+00
2.825e-01,2.535e+00
2.875e-01,2.565e+00
2.925e-01,2.590e+00
2.975e-01,2.612e+00
3.025e-01,2.629e+00
3.075e-01,2.642e+00
3.125e-01,2.651e+00
3.175e-01,2.656e+00
3.225e-01,2.658e+00
3.275e-01,2.656e+00
3.325e-01,2.651e+00
3.375e-01,2.643e+00
3.425e-01,2.632e+00
3.475e-01,2.618e+00
3.525e-01,2.601e+00
3.575e-01,2.582e+00
3.625e-01,2.561e+00
3.675e-01,2.538e+00
3.725e-01,2.512e+00
3.775e-01,2.485e+00
3.825e-01,2.456e+00
3.875e-01,2.426e+00
3.925e-01,2.394e+00
3.975e-01,2.361e+00
4.025e-01,2.327e+00
4.075e-01,2.292e+00
4.125e-01,2.256e+00
4.175e-01,2.219e+00
4.225e-01,2.182e+00
4.275e-01,2.144e+00
4.325e-01,2.106e+00
4.375e-01,2.067e+00
4.425e-01,2.028e+00
4.475e-01,1.989e+00
4.525e-01,1.949e+00
4.575e-01,1.910e+00
4.625e-01,1.870e+00
4.675e-01,1.831e+00
4.725e-01,1.792e+00
4.775e-01,1.753e+00
4.825e-01,1.714e+00
4.875e-01,1.675e+00
4.925e-01,1.637e+00
4.975e-01,1.599e+00
5.025e-01,1.562e+00
5.075e-01,1.525e+00
5.125e-01,1.488e+00
5.175e-01,1.452e+00
5.225e-01,1.417e+00
5.275e-01,1.382e+00
5.325e-01,1.347e+00
5.375e-01,1.313e+00
5.425e-01,1.280e+00
5.475e-01,1.247e+00
5.525e-01,1.215e+00
5.575e-01,1.183e+00
5.625e-01,1.152e+00
5.675e-01,1.121e+00
5.725e-01,1.092e+00
5.775e-01,1.062e+00
5.825e-01,1.034e+00
5.875e-01,1.006e+00
5.925e-01,9.782e-01
5.975e-01,9.514e-01
6.025e-01,9.252e-01
6.075e-01,8.996e-01
6.125e-01,8.745e-01
6.175e-01,8.501e-01
6.225e-01,8.262e-01
6.275e-01,8.030e-01
6.325e-01,7.802e-01
6.375e-01,7.581e-01
6.425e-01,7.365e-01
6.475e-01,7.154e-01
6.525e-01,6.949e-01
6.575e-01,6.749e-01
6.625e-01,6.554e-01
6.675e-01,6.364e-01
6.725e-01,6.179e-01
6.775e-01,5.999e-01
6.825e-01,5.824e-01
6.875e-01,5.654e-01
6.925e-01,5.488e-01
6.975e-01,5.327e-01
7.025e-01,5.170e-01
7.075e-01,5.017e-01
7.125e-01,4.869e-01
7.175e-01,4.725e-01
7.225e-01,4.584e-01
7.275e-01,4.448e-01
7.325e-01,4.316e-01
7.375e-01,4.187e-01
7.425e-01,4.062e-01
7.475e-01,3.941e-01
7.525e-01,3.823e-01
7.575e-01,3.708e-01
7.625e-01,3.597e-01
7.675e-01,3.489e-01
7.725e-01,3.384e-01
7.775e-01,3.282e-01
7.825e-01,3.183e-01
7.875e-01,3.088e-01
7.925e-01,2.994e-01
7.975e-01,2.904e-01
8.025e-01,2.816e-01
8.075e-01,2.731e-01
8.125e-01,2.649e-01
8.175e-01,2.569e-01
8.225e-01,2.491e-01
8.275e-01,2.415e-01
8.325e-01,2.342e-01
8.375e-01,2.271e-01
8.425e-01,2.202e-01
8.475e-01,2.136e-01
8.525e-01,2.071e-01
8.575e-01,2.008e-01
8.625e-01,1.947e-01
8.675e-01,1.888e-01
8.725e-01,1.831e-01
8.775e-01,1.775e-01
8.825e-01,1.722e-01
8.875e-01,1.669e-01
8.925e-01,1.619e-01
8.975e-01,1.570e-01
9.025e-01,1.522e-01
9.075e-01,1.476e-01
9.125e-01,1.431e-01
9.175e-01,1.388e-01
9.225e-01,1.346e-01
9.275e-01,1.305e-01
9.325e-01,1.265e-01
9.375e-01,1.227e-01
9.425e-01,1.190e-01
9.475e-01,1.154e-01
9.525e-01,1.119e-01
9.575e-01,1.085e-01
9.625e-01,1.052e-01
9.675e-01,1.021e-01
9.725e-01,9.899e-02
9.775e-01,9.600e-02
9.825e-01,9.311e-02
9.875e-01,9.030e-02
9.925e-01,8.758e-02
9.975e-01,8.494e-02
