transmittance,probability_density
2.500e-03,1.996e-54
7.500e-03,3.345e-34
1.250e-02,2.102e-26
1.750e-02,7.987e-22
2.250e-02,1.083e-18
2.750e-02,2.283e-16
3.250e-02,1.490e-14
3.750e-02,4.374e-13
4.250e-02,7.228e-12
4.750e-02,7.767e-11
5.250e-02,5.982e-10
5.750e-02,3.538e-09
6.250e-02,1.690e-08
6.750e-02,6.771e-08
7.250e-02,2.342e-07
7.750e-02,7.155e-07
8.250e-02,1.966e-06
8.750e-02,4.927e-06
9.250e-02,1.141e-05
9.750e-02,2.462e-05
1.025e-01,4.997e-05
1.075e-01,9.604e-05
1.125e-01,1.758e-04
1.175e-01,3.080e-04
1.225e-01,5.189e-04
1.275e-01,8.436e-04
1.325e-01,1.328e-03
1.375e-01,2.030e-03
1.425e-01,3.021e-03
1.475e-01,4.386e-03
1.525e-01,6.225e-03
1.575e-01,8.654e-03
1.625e-01,1.180e-02
1.675e-01,1.581e-02
1.725e-01,2.084e-02
1.775e-01,2.704e-02
1.825e-01,3.459e-02
1.875e-01,4.367e-02
1.925e-01,5.445e-02
1.975e-01,6.710e-02
2.025e-01,8.179e-02
2.075e-01,9.868e-02
2.125e-01,1.179e-01
2.175e-01,1.396e-01
2.225e-01,1.640e-01
2.275e-01,1.910e-01
2.325e-01,2.207e-01
2.375e-01,2.533e-01
2.425e-01,2.887e-01
2.475e-01,3.269e-01
2.525e-01,3.680e-01
2.575e-01,4.118e-01
2.625e-01,4.582e-01
2.675e-01,5.073e-01
2.725e-01,5.587e-01
2.775e-01,6.125e-01
2.825e-01,6.685e-01
2.875e-01,7.264e-01
2.925e-01,7.860e-01
2.975e-01,8.472e-01
3.025e-01,9.098e-01
3.075e-01,9.734e-01
3.125e-01,1.038e+00
3.175e-01,1.103e+00
3.225e-01,1.169e+00
3.275e-01,1.234e+00
3.325e-01,1.300e+00
3.375e-01,1.365e+00
3.425e-01,1.430e+00
3.475e-01,1.493e+00
3.525e-01,1.556e+00
3.575e-01,1.618e+00
3.625e-01,1.678e+00
3.675e-01,1.737e+00
3.725e-01,1.794e+00
3.775e-01,1.849e+00
3.825e-01,1.902e+00
3.875e-01,1.953e+00
3.925e-01,2.001e+00
3.975e-01,2.047e+00
4.025e-01,2.091e+00
4.075e-01,2.132e+00
4.125e-01,2.170e+00
4.175e-01,2.206e+00
4.225e-01,2.239e+00
4.275e-01,2.269e+00
4.325e-01,2.297e+00
4.375e-01,2.321e+00
4.425e-01,2.343e+00
4.475e-01,2.362e+00
4.525e-01,2.379e+00
4.575e-01,2.393e+00
4.625e-01,2.404e+00
4.675e-01,2.413e+00
4.725e-01,2.419e+00
4.775e-01,2.422e+00
4.825e-01,2.423e+00
4.875e-01,2.422e+00
4.925e-01,2.419e+00
4.975e-01,2.413e+00
5.025e-01,2.405e+00
5.075e-01,2.395e+00
5.125e-01,2.384e+00
5.175e-01,2.370e+00
5.225e-01,2.355e+00
5.275e-01,2.338e+00
5.325e-01,2.319e+00
5.375e-01,2.299e+00
5.425e-01,2.278e+00
5.475e-01,2.255e+00
5.525e-01,2.231e+00
5.575e-01,2.206e+00
5.625e-01,2.180e+00
5.675e-01,2.152e+00
5.725e-01,2.124e+00
5.775e-01,2.095e+00
5.825e-01,2.066e+00
5.875e-01,2.035e+00
5.925e-01,2.004e+00
5.975e-01,1.973e+00
6.025e-01,1.941e+00
6.075e-01,1.908e+00
6.125e-01,1.876e+00
6.175e-01,1.843e+00
6.225e-01,1.809e+00
6.275e-01,1.776e+00
6.325e-01,1.742e+00
6.375e-01,1.709e+00
6.425e-01,1.675e+00
6.475e-01,1.642e+00
6.525e-01,1.608e+00
6.575e-01,1.575e+00
6.625e-01,1.542e+00
6.675e-01,1.508e+00
6.725e-01,1.476e+00
6.775e-01,1.443e+00
6.825e-01,1.410e+00
6.875e-01,1.378e+00
6.925e-01,1.347e+00
6.975e-01,1.315e+00
7.025e-01,1.284e+00
7.075e-01,1.253e+00
7.125e-01,1.223e+00
7.175e-01,1.193e+00
7.225e-01,1.164e+00
7.275e-01,1.135e+00
7.325e-01,1.106e+00
7.375e-01,1.078e+00
7.425e-01,1.050e+00
7.475e-01,1.023e+00
7.525e-01,9.965e-01
7.575e-01,9.702e-01
7.625e-01,9.445e-01
7.675e-01,9.192e-01
7.725e-01,8.945e-01
7.775e-01,8.702e-01
7.825e-01,8.464e-01
7.875e-01,8.232e-01
7.925e-01,8.004e-01
7.975e-01,7.781e-01
8.025e-01,7.563e-01
8.075e-01,7.349e-01
8.125e-01,7.141e-01
8.175e-01,6.937e-01
8.225e-01,6.739e-01
8.275e-01,6.544e-01
8.325e-01,6.355e-01
8.375e-01,6.170e-01
8.425e-01,5.989e-01
8.475e-01,5.813e-01
8.525e-01,5.642e-01
8.575e-01,5.474e-01
8.625e-01,5.311e-01
8.675e-01,5.153e-01
8.725e-01,4.998e-01
8.775e-01,4.847e-01
8.825e-01,4.701e-01
8.875e-01,4.558e-01
8.925e-01,4.419e-01
8.975e-01,4.284e-01
9.025e-01,4.153e-01
9.075e-01,4.025e-01
9.125e-01,3.901e-01
9.175e-01,3.780e-01
9.225e-01,3.662e-01
9.275e-01,3.548e-01
9.325e-01,3.438e-01
9.375e-01,3.330e-01
9.425e-01,3.225e-01
9.475e-01,3.124e-01
9.525e-01,3.025e-01
9.575e-01,2.929e-01
9.625e-01,2.836e-01
9.675e-01,2.746e-01
9.725e-01,2.659e-01
9.775e-01,2.574e-01
9.825e-01,2.492e-01
9.875e-01,2.412e-01
9.925e-01,2.334e-01
9.975e-01,2.259e-01
