transmittance,probability_density
2.500e-03,8.224e-42
7.500e-03,6.294e-26
1.250e-02,7.670e-20
1.750e-02,2.771e-16
2.250e-02,7.356e-14
2.750e-02,4.557e-12
3.250e-02,1.131e-10
3.750e-02,1.507e-09
4.250e-02,1.284e-08
4.750e-02,7.833e-08
5.250e-02,3.691e-07
5.750e-02,1.418e-06
6.250e-02,4.617e-06
6.750e-02,1.313e-05
7.250e-02,3.332e-05
7.750e-02,7.685e-05
8.250e-02,1.634e-04
8.750e-02,3.237e-04
9.250e-02,6.032e-04
9.750e-02,1.066e-03
1.025e-01,1.796e-03
1.075e-01,2.903e-03
1.125e-01,4.520e-03
1.175e-01,6.808e-03
1.225e-01,9.951e-03
1.275e-01,1.416e-02
1.325e-01,1.965e-02
1.375e-01,2.667e-02
1.425e-01,3.548e-02
1.475e-01,4.631e-02
1.525e-01,5.943e-02
1.575e-01,7.508e-02
1.625e-01,9.348e-02
1.675e-01,1.148e-01
1.725e-01,1.393e-01
1.775e-01,1.671e-01
1.825e-01,1.982e-01
1.875e-01,2.329e-01
1.925e-01,2.710e-01
1.975e-01,3.126e-01
2.025e-01,3.577e-01
2.075e-01,4.061e-01
2.125e-01,4.578e-01
2.175e-01,5.126e-01
2.225e-01,5.704e-01
2.275e-01,6.308e-01
2.325e-01,6.936e-01
2.375e-01,7.587e-01
2.425e-01,8.257e-01
2.475e-01,8.943e-01
2.525e-01,9.642e-01
2.575e-01,1.035e+00
2.625e-01,1.107e+00
2.675e-01,1.179e+00
2.725e-01,1.251e+00
2.775e-01,1.322e+00
2.825e-01,1.394e+00
2.875e-01,1.464e+00
2.925e-01,1.533e+00
2.975e-01,1.601e+00
3.025e-01,1.668e+00
3.075e-01,1.732e+00
3.125e-01,1.795e+00
3.175e-01,1.855e+00
3.225e-01,1.913e+00
3.275e-01,1.968e+00
3.325e-01,2.021e+00
3.375e-01,2.071e+00
3.425e-01,2.118e+00
3.475e-01,2.162e+00
3.525e-01,2.202e+00
3.575e-01,2.240e+00
3.625e-01,2.275e+00
3.675e-01,2.307e+00
3.725e-01,2.335e+00
3.775e-01,2.361e+00
3.825e-01,2.383e+00
3.875e-01,2.402e+00
3.925e-01,2.418e+00
3.975e-01,2.432e+00
4.025e-01,2.442e+00
4.075e-01,2.450e+00
4.125e-01,2.454e+00
4.175e-01,2.457e+00
4.225e-01,2.456e+00
4.275e-01,2.453e+00
4.325e-01,2.448e+00
4.375e-01,2.440e+00
4.425e-01,2.431e+00
4.475e-01,2.419e+00
4.525e-01,2.405e+00
4.575e-01,2.389e+00
4.625e-01,2.372e+00
4.675e-01,2.353e+00
4.725e-01,2.332e+00
4.775e-01,2.310e+00
4.825e-01,2.286e+00
4.875e-01,2.261e+00
4.925e-01,2.235e+00
4.975e-01,2.208e+00
5.025e-01,2.180e+00
5.075e-01,2.151e+00
5.125e-01,2.121e+00
5.175e-01,2.090e+00
5.225e-01,2.059e+00
5.275e-01,2.027e+00
5.325e-01,1.995e+00
5.375e-01,1.962e+00
5.425e-01,1.929e+00
5.475e-01,1.895e+00
5.525e-01,1.861e+00
5.575e-01,1.827e+00
5.625e-01,1.793e+00
5.675e-01,1.759e+00
5.725e-01,1.725e+00
5.775e-01,1.691e+00
5.825e-01,1.657e+00
5.875e-01,1.623e+00
5.925e-01,1.589e+00
5.975e-01,1.555e+00
6.025e-01,1.522e+00
6.075e-01,1.488e+00
6.125e-01,1.455e+00
6.175e-01,1.423e+00
6.225e-01,1.390e+00
6.275e-01,1.358e+00
6.325e-01,1.327e+00
6.375e-01,1.296e+00
6.425e-01,1.265e+00
6.475e-01,1.234e+00
6.525e-01,1.204e+00
6.575e-01,1.175e+00
6.625e-01,1.146e+00
6.675e-01,1.117e+00
6.725e-01,1.089e+00
6.775e-01,1.062e+00
6.825e-01,1.034e+00
6.875e-01,1.008e+00
6.925e-01,9.816e-01
6.975e-01,9.560e-01
7.025e-01,9.308e-01
7.075e-01,9.062e-01
7.125e-01,8.820e-01
7.175e-01,8.584e-01
7.225e-01,8.352e-01
7.275e-01,8.126e-01
7.325e-01,7.904e-01
7.375e-01,7.687e-01
7.425e-01,7.475e-01
7.475e-01,7.268e-01
7.525e-01,7.066e-01
7.575e-01,6.868e-01
7.625e-01,6.675e-01
7.675e-01,6.487e-01
7.725e-01,6.303e-01
7.775e-01,6.124e-01
7.825e-01,5.949e-01
7.875e-01,5.778e-01
7.925e-01,5.612e-01
7.975e-01,5.450e-01
8.025e-01,5.292e-01
8.075e-01,5.138e-01
8.125e-01,4.988e-01
8.175e-01,4.842e-01
8.225e-01,4.700e-01
8.275e-01,4.562e-01
8.325e-01,4.427e-01
8.375e-01,4.296e-01
8.425e-01,4.168e-01
8.475e-01,4.044e-01
8.525e-01,3.924e-01
8.575e-01,3.807e-01
8.625e-01,3.693e-01
8.675e-01,3.582e-01
8.725e-01,3.474e-01
8.775e-01,3.369e-01
8.825e-01,3.267e-01
8.875e-01,3.168e-01
8.925e-01,3.072e-01
8.975e-01,2.979e-01
9.025e-01,2.888e-01
9.075e-01,2.800e-01
9.125e-01,2.715e-01
9.175e-01,2.632e-01
9.225e-01,2.551e-01
9.275e-01,2.473e-01
9.325e-01,2.397e-01
9.375e-01,2.323e-01
9.425e-01,2.252e-01
9.475e-01,2.182e-01
9.525e-01,2.115e-01
9.575e-01,2.050e-01
9.625e-01,1.986e-01
9.675e-01,1.925e-01
9.725e-01,1.865e-01
9.775e-01,1.807e-01
9.825e-01,1.751e-01
9.875e-01,1.697e-01
9.925e-01,1.644e-01
9.975e-01,1.593e-01
