transmittance,probability_density
1.802e-03,0.000e+00
5.406e-03,3.053e-02
9.010e-03,6.106e-02
1.261e-02,8.881e-02
1.622e-02,1.415e-01
1.982e-02,2.415e-01
2.343e-02,3.469e-01
2.703e-02,5.218e-01
3.064e-02,6.772e-01
3.424e-02,7.910e-01
3.784e-02,9.187e-01
4.145e-02,1.266e+00
4.505e-02,1.590e+00
4.866e-02,1.737e+00
5.226e-02,2.057e+00
5.586e-02,2.426e+00
5.947e-02,2.759e+00
6.307e-02,3.075e+00
6.668e-02,3.641e+00
7.028e-02,3.963e+00
7.389e-02,4.632e+00
7.749e-02,5.640e+00
8.109e-02,5.892e+00
8.470e-02,6.497e+00
8.830e-02,7.155e+00
9.191e-02,7.793e+00
9.551e-02,8.637e+00
9.911e-02,9.173e+00
1.027e-01,9.731e+00
1.063e-01,1.031e+01
1.099e-01,1.060e+01
1.135e-01,1.086e+01
1.171e-01,1.153e+01
1.207e-01,1.140e+01
1.243e-01,1.122e+01
1.279e-01,1.086e+01
1.316e-01,1.055e+01
1.352e-01,1.037e+01
1.388e-01,9.781e+00
1.424e-01,8.754e+00
1.460e-01,8.423e+00
1.496e-01,7.852e+00
1.532e-01,7.088e+00
1.568e-01,6.311e+00
1.604e-01,5.745e+00
1.640e-01,5.051e+00
1.676e-01,4.463e+00
1.712e-01,3.947e+00
1.748e-01,3.444e+00
1.784e-01,2.900e+00
1.820e-01,2.462e+00
1.856e-01,2.026e+00
1.892e-01,1.818e+00
1.928e-01,1.488e+00
1.964e-01,1.263e+00
2.000e-01,9.853e-01
2.036e-01,8.743e-01
2.072e-01,7.743e-01
2.108e-01,5.301e-01
2.144e-01,4.191e-01
2.181e-01,3.414e-01
2.217e-01,3.108e-01
2.253e-01,2.637e-01
2.289e-01,2.109e-01
2.325e-01,1.804e-01
2.361e-01,1.360e-01
2.397e-01,1.110e-01
2.433e-01,5.551e-02
2.469e-01,7.771e-02
2.505e-01,3.330e-02
2.541e-01,3.053e-02
2.577e-01,1.110e-02
2.613e-01,2.220e-02
2.649e-01,1.110e-02
2.685e-01,2.775e-02
2.721e-01,1.388e-02
2.757e-01,2.775e-03
2.793e-01,5.551e-03
2.829e-01,0.000e+00
2.865e-01,8.326e-03
2.901e-01,8.326e-03
2.937e-01,2.775e-03
2.973e-01,2.775e-03
3.009e-01,0.000e+00
3.046e-01,2.775e-03
3.082e-01,0.000e+00
3.118e-01,0.000e+00
3.154e-01,0.000e+00
3.190e-01,0.000e+00
3.226e-01,0.000e+00
3.262e-01,0.000e+00
3.298e-01,0.000e+00
3.334e-01,0.000e+00
3.370e-01,0.000e+00
3.406e-01,0.000e+00
3.442e-01,0.000e+00
3.478e-01,0.000e+00
3.514e-01,0.000e+00
3.550e-01,0.000e+00
3.586e-01,0.000e+00
3.622e-01,0.000e+00
3.658e-01,0.000e+00
3.694e-01,0.000e+00
3.730e-01,0.000e+00
3.766e-01,0.000e+00
3.802e-01,0.000e+00
3.838e-01,0.000e+00
3.874e-01,0.000e+00
3.911e-01,0.000e+00
3.947e-01,0.000e+00
3.983e-01,0.000e+00
4.019e-01,0.000e+00
4.055e-01,0.000e+00
4.091e-01,0.000e+00
4.127e-01,0.000e+00
4.163e-01,0.000e+00
4.199e-01,0.000e+00
4.235e-01,0.000e+00
4.271e-01,0.000e+00
4.307e-01,0.000e+00
4.343e-01,0.000e+00
4.379e-01,0.000e+00
4.415e-01,0.000e+00
4.451e-01,0.000e+00
4.487e-01,0.000e+00
4.523e-01,0.000e+00
4.559e-01,0.000e+00
4.595e-01,0.000e+00
4.631e-01,0.000e+00
4.667e-01,0.000e+00
4.703e-01,0.000e+00
4.739e-01,0.000e+00
4.775e-01,0.000e+00
4.812e-01,0.000e+00
4.848e-01,0.000e+00
4.884e-01,0.000e+00
4.920e-01,0.000e+00
4.956e-01,0.000e+00
4.992e-01,0.000e+00
5.028e-01,0.000e+00
5.064e-01,0.000e+00
5.100e-01,0.000e+00
5.136e-01,0.000e+00
5.172e-01,0.000e+00
5.208e-01,0.000e+00
5.244e-01,0.000e+00
5.280e-01,0.000e+00
5.316e-01,0.000e+00
5.352e-01,0.000e+00
5.388e-01,0.000e+00
5.424e-01,0.000e+00
5.460e-01,0.000e+00
5.496e-01,0.000e+00
5.532e-01,0.000e+00
5.568e-01,0.000e+00
5.604e-01,0.000e+00
5.640e-01,0.000e+00
5.677e-01,0.000e+00
5.713e-01,0.000e+00
5.749e-01,0.000e+00
5.785e-01,0.000e+00
5.821e-01,0.000e+00
5.857e-01,0.000e+00
5.893e-01,0.000e+00
5.929e-01,0.000e+00
5.965e-01,0.000e+00
6.001e-01,0.000e+00
6.037e-01,0.000e+00
6.073e-01,0.000e+00
6.109e-01,0.000e+00
6.145e-01,0.000e+00
6.181e-01,0.000e+00
6.217e-01,0.000e+00
6.253e-01,0.000e+00
6.289e-01,0.000e+00
6.325e-01,0.000e+00
6.361e-01,0.000e+00
6.397e-01,0.000e+00
6.433e-01,0.000e+00
6.469e-01,0.000e+00
6.505e-01,0.000e+00
6.542e-01,0.000e+00
6.578e-01,0.000e+00
6.614e-01,0.000e+00
6.650e-01,0.000e+00
6.686e-01,0.000e+00
6.722e-01,0.000e+00
6.758e-01,0.000e+00
6.794e-01,0.000e+00
6.830e-01,0.000e+00
6.866e-01,0.000e+00
6.902e-01,0.000e+00
6.938e-01,0.000e+00
6.974e-01,0.000e+00
7.010e-01,0.000e+00
7.046e-01,0.000e+00
7.082e-01,0.000e+00
7.118e-01,0.000e+00
7.154e-01,0.000e+00
7.190e-01,0.000e+00
