transmittance,probability_density
1.008e-03,2.535e+01
3.024e-03,2.341e+01
5.041e-03,2.202e+01
7.057e-03,2.082e+01
9.073e-03,1.973e+01
1.109e-02,1.873e+01
1.311e-02,1.779e+01
1.512e-02,1.692e+01
1.714e-02,1.609e+01
1.915e-02,1.531e+01
2.117e-02,1.457e+01
2.319e-02,1.387e+01
2.520e-02,1.320e+01
2.722e-02,1.257e+01
2.924e-02,1.197e+01
3.125e-02,1.140e+01
3.327e-02,1.085e+01
3.529e-02,1.033e+01
3.730e-02,9.841e+00
3.932e-02,9.372e+00
4.133e-02,8.924e+00
4.335e-02,8.498e+00
4.537e-02,8.091e+00
4.738e-02,7.704e+00
4.940e-02,7.335e+00
5.142e-02,6.984e+00
5.343e-02,6.649e+00
5.545e-02,6.329e+00
5.746e-02,6.025e+00
5.948e-02,5.735e+00
6.150e-02,5.458e+00
6.351e-02,5.194e+00
6.553e-02,4.943e+00
6.755e-02,4.704e+00
6.956e-02,4.476e+00
7.158e-02,4.258e+00
7.359e-02,4.051e+00
7.561e-02,3.853e+00
7.763e-02,3.665e+00
7.964e-02,3.486e+00
8.166e-02,3.315e+00
8.368e-02,3.153e+00
8.569e-02,2.998e+00
8.771e-02,2.850e+00
8.973e-02,2.709e+00
9.174e-02,2.575e+00
9.376e-02,2.448e+00
9.577e-02,2.326e+00
9.779e-02,2.211e+00
9.981e-02,2.101e+00
1.018e-01,1.996e+00
1.038e-01,1.896e+00
1.059e-01,1.801e+00
1.079e-01,1.711e+00
1.099e-01,1.625e+00
1.119e-01,1.543e+00
1.139e-01,1.465e+00
1.159e-01,1.391e+00
1.180e-01,1.320e+00
1.200e-01,1.253e+00
1.220e-01,1.189e+00
1.240e-01,1.129e+00
1.260e-01,1.071e+00
1.280e-01,1.016e+00
1.301e-01,9.640e-01
1.321e-01,9.144e-01
1.341e-01,8.673e-01
1.361e-01,8.225e-01
1.381e-01,7.799e-01
1.401e-01,7.395e-01
1.421e-01,7.010e-01
1.442e-01,6.645e-01
1.462e-01,6.298e-01
1.482e-01,5.968e-01
1.502e-01,5.656e-01
1.522e-01,5.358e-01
1.542e-01,5.076e-01
1.563e-01,4.808e-01
1.583e-01,4.554e-01
1.603e-01,4.312e-01
1.623e-01,4.083e-01
1.643e-01,3.866e-01
1.663e-01,3.659e-01
1.684e-01,3.464e-01
1.704e-01,3.278e-01
1.724e-01,3.102e-01
1.744e-01,2.935e-01
1.764e-01,2.776e-01
1.784e-01,2.626e-01
1.805e-01,2.484e-01
1.825e-01,2.349e-01
1.845e-01,2.221e-01
1.865e-01,2.099e-01
1.885e-01,1.984e-01
1.905e-01,1.876e-01
1.926e-01,1.772e-01
1.946e-01,1.675e-01
1.966e-01,1.582e-01
1.986e-01,1.494e-01
2.006e-01,1.412e-01
2.026e-01,1.333e-01
2.047e-01,1.259e-01
2.067e-01,1.188e-01
2.087e-01,1.122e-01
2.107e-01,1.059e-01
2.127e-01,9.989e-02
2.147e-01,9.425e-02
2.168e-01,8.892e-02
2.188e-01,8.387e-02
2.208e-01,7.910e-02
2.228e-01,7.459e-02
2.248e-01,7.033e-02
2.268e-01,6.630e-02
2.289e-01,6.249e-02
2.309e-01,5.889e-02
2.329e-01,5.549e-02
2.349e-01,5.228e-02
2.369e-01,4.925e-02
2.389e-01,4.638e-02
2.409e-01,4.368e-02
2.430e-01,4.112e-02
2.450e-01,3.871e-02
2.470e-01,3.644e-02
2.490e-01,3.429e-02
2.510e-01,3.227e-02
2.530e-01,3.036e-02
2.551e-01,2.855e-02
2.571e-01,2.685e-02
2.591e-01,2.525e-02
2.611e-01,2.374e-02
2.631e-01,2.232e-02
2.651e-01,2.097e-02
2.672e-01,1.971e-02
2.692e-01,1.852e-02
2.712e-01,1.740e-02
2.732e-01,1.634e-02
2.752e-01,1.534e-02
2.772e-01,1.440e-02
2.793e-01,1.352e-02
2.813e-01,1.269e-02
2.833e-01,1.191e-02
2.853e-01,1.117e-02
2.873e-01,1.048e-02
2.893e-01,9.831e-03
2.914e-01,9.219e-03
2.934e-01,8.644e-03
2.954e-01,8.102e-03
2.974e-01,7.594e-03
2.994e-01,7.116e-03
3.014e-01,6.667e-03
3.035e-01,6.245e-03
3.055e-01,5.848e-03
3.075e-01,5.476e-03
3.095e-01,5.126e-03
3.115e-01,4.798e-03
3.135e-01,4.490e-03
3.156e-01,4.201e-03
3.176e-01,3.930e-03
3.196e-01,3.676e-03
3.216e-01,3.437e-03
3.236e-01,3.213e-03
3.256e-01,3.003e-03
3.276e-01,2.807e-03
3.297e-01,2.623e-03
3.317e-01,2.450e-03
3.337e-01,2.288e-03
3.357e-01,2.136e-03
3.377e-01,1.995e-03
3.397e-01,1.862e-03
3.418e-01,1.737e-03
3.438e-01,1.621e-03
3.458e-01,1.512e-03
3.478e-01,1.410e-03
3.498e-01,1.315e-03
3.518e-01,1.225e-03
3.539e-01,1.142e-03
3.559e-01,1.064e-03
3.579e-01,9.914e-04
3.599e-01,9.234e-04
3.619e-01,8.598e-04
3.639e-01,8.004e-04
3.660e-01,7.450e-04
3.680e-01,6.932e-04
3.700e-01,6.449e-04
3.720e-01,5.999e-04
3.740e-01,5.578e-04
3.760e-01,5.186e-04
3.781e-01,4.820e-04
3.801e-01,4.479e-04
3.821e-01,4.161e-04
3.841e-01,3.865e-04
3.861e-01,3.589e-04
3.881e-01,3.331e-04
3.902e-01,3.092e-04
3.922e-01,2.869e-04
3.942e-01,2.661e-04
3.962e-01,2.468e-04
3.982e-01,2.289e-04
4.002e-01,2.121e-04
4.023e-01,1.966e-04
