transmittance,probability_density
2.500e-03,9.952e-45
7.500e-03,6.196e-36
1.250e-02,7.557e-32
1.750e-02,3.699e-29
2.250e-02,3.764e-27
2.750e-02,1.505e-25
3.250e-02,3.238e-24
3.750e-02,4.478e-23
4.250e-02,4.448e-22
4.750e-02,3.417e-21
5.250e-02,2.137e-20
5.750e-02,1.129e-19
6.250e-02,5.190e-19
6.750e-02,2.119e-18
7.250e-02,7.813e-18
7.750e-02,2.639e-17
8.250e-02,8.251e-17
8.750e-02,2.410e-16
9.250e-02,6.629e-16
9.750e-02,1.727e-15
1.025e-01,4.287e-15
1.075e-01,1.018e-14
1.125e-01,2.323e-14
1.175e-01,5.111e-14
1.225e-01,1.087e-13
1.275e-01,2.243e-13
1.325e-01,4.498e-13
1.375e-01,8.784e-13
1.425e-01,1.674e-12
1.475e-01,3.118e-12
1.525e-01,5.685e-12
1.575e-01,1.016e-11
1.625e-01,1.783e-11
1.675e-01,3.074e-11
1.725e-01,5.211e-11
1.775e-01,8.700e-11
1.825e-01,1.431e-10
1.875e-01,2.322e-10
1.925e-01,3.717e-10
1.975e-01,5.876e-10
2.025e-01,9.180e-10
2.075e-01,1.418e-09
2.125e-01,2.167e-09
2.175e-01,3.277e-09
2.225e-01,4.907e-09
2.275e-01,7.280e-09
2.325e-01,1.070e-08
2.375e-01,1.560e-08
2.425e-01,2.255e-08
2.475e-01,3.234e-08
2.525e-01,4.602e-08
2.575e-01,6.502e-08
2.625e-01,9.121e-08
2.675e-01,1.271e-07
2.725e-01,1.759e-07
2.775e-01,2.420e-07
2.825e-01,3.308e-07
2.875e-01,4.496e-07
2.925e-01,6.076e-07
2.975e-01,8.166e-07
3.025e-01,1.092e-06
3.075e-01,1.452e-06
3.125e-01,1.921e-06
3.175e-01,2.530e-06
3.225e-01,3.316e-06
3.275e-01,4.326e-06
3.325e-01,5.620e-06
3.375e-01,7.269e-06
3.425e-01,9.362e-06
3.475e-01,1.201e-05
3.525e-01,1.534e-05
3.575e-01,1.953e-05
3.625e-01,2.476e-05
3.675e-01,3.128e-05
3.725e-01,3.938e-05
3.775e-01,4.941e-05
3.825e-01,6.177e-05
3.875e-01,7.698e-05
3.925e-01,9.562e-05
3.975e-01,1.184e-04
4.025e-01,1.461e-04
4.075e-01,1.799e-04
4.125e-01,2.207e-04
4.175e-01,2.700e-04
4.225e-01,3.294e-04
4.275e-01,4.008e-04
4.325e-01,4.864e-04
4.375e-01,5.886e-04
4.425e-01,7.105e-04
4.475e-01,8.555e-04
4.525e-01,1.027e-03
4.575e-01,1.231e-03
4.625e-01,1.471e-03
4.675e-01,1.754e-03
4.725e-01,2.087e-03
4.775e-01,2.477e-03
4.825e-01,2.933e-03
4.875e-01,3.466e-03
4.925e-01,4.086e-03
4.975e-01,4.808e-03
5.025e-01,5.644e-03
5.075e-01,6.613e-03
5.125e-01,7.733e-03
5.175e-01,9.023e-03
5.225e-01,1.051e-02
5.275e-01,1.221e-02
5.325e-01,1.417e-02
5.375e-01,1.641e-02
5.425e-01,1.896e-02
5.475e-01,2.188e-02
5.525e-01,2.519e-02
5.575e-01,2.895e-02
5.625e-01,3.322e-02
5.675e-01,3.805e-02
5.725e-01,4.350e-02
5.775e-01,4.965e-02
5.825e-01,5.657e-02
5.875e-01,6.434e-02
5.925e-01,7.306e-02
5.975e-01,8.283e-02
6.025e-01,9.374e-02
6.075e-01,1.059e-01
6.125e-01,1.195e-01
6.175e-01,1.345e-01
6.225e-01,1.513e-01
6.275e-01,1.698e-01
6.325e-01,1.903e-01
6.375e-01,2.130e-01
6.425e-01,2.379e-01
6.475e-01,2.654e-01
6.525e-01,2.956e-01
6.575e-01,3.286e-01
6.625e-01,3.649e-01
6.675e-01,4.044e-01
6.725e-01,4.475e-01
6.775e-01,4.945e-01
6.825e-01,5.455e-01
6.875e-01,6.008e-01
6.925e-01,6.607e-01
6.975e-01,7.254e-01
7.025e-01,7.952e-01
7.075e-01,8.703e-01
7.125e-01,9.509e-01
7.175e-01,1.037e+00
7.225e-01,1.130e+00
7.275e-01,1.228e+00
7.325e-01,1.333e+00
7.375e-01,1.445e+00
7.425e-01,1.563e+00
7.475e-01,1.687e+00
7.525e-01,1.819e+00
7.575e-01,1.957e+00
7.625e-01,2.102e+00
7.675e-01,2.254e+00
7.725e-01,2.412e+00
7.775e-01,2.575e+00
7.825e-01,2.745e+00
7.875e-01,2.920e+00
7.925e-01,3.100e+00
7.975e-01,3.283e+00
8.025e-01,3.470e+00
8.075e-01,3.660e+00
8.125e-01,3.851e+00
8.175e-01,4.042e+00
8.225e-01,4.232e+00
8.275e-01,4.419e+00
8.325e-01,4.603e+00
8.375e-01,4.780e+00
8.425e-01,4.950e+00
8.475e-01,5.111e+00
8.525e-01,5.259e+00
8.575e-01,5.394e+00
8.625e-01,5.512e+00
8.675e-01,5.612e+00
8.725e-01,5.690e+00
8.775e-01,5.745e+00
8.825e-01,5.774e+00
8.875e-01,5.774e+00
8.925e-01,5.744e+00
8.975e-01,5.681e+00
9.025e-01,5.583e+00
9.075e-01,5.450e+00
9.125e-01,5.280e+00
9.175e-01,5.072e+00
9.225e-01,4.827e+00
9.275e-01,4.546e+00
9.325e-01,4.230e+00
9.375e-01,3.883e+00
9.425e-01,3.508e+00
9.475e-01,3.111e+00
9.525e-01,2.697e+00
9.575e-01,2.276e+00
9.625e-01,1.857e+00
9.675e-01,1.450e+00
9.725e-01,1.069e+00
9.775e-01,7.267e-01
9.825e-01,4.374e-01
9.875e-01,2.146e-01
9.925e-01,6.931e-02
9.975e-01,5.476e-03
