transmittance,probability_density
2.500e-03,3.885e-34
7.500e-03,3.088e-27
1.250e-02,4.947e-24
1.750e-02,6.350e-22
2.250e-02,2.376e-20
2.750e-02,4.269e-19
3.250e-02,4.716e-18
3.750e-02,3.682e-17
4.250e-02,2.217e-16
4.750e-02,1.091e-15
5.250e-02,4.570e-15
5.750e-02,1.677e-14
6.250e-02,5.514e-14
6.750e-02,1.652e-13
7.250e-02,4.569e-13
7.750e-02,1.180e-12
8.250e-02,2.866e-12
8.750e-02,6.602e-12
9.250e-02,1.450e-11
9.750e-02,3.054e-11
1.025e-01,6.189e-11
1.075e-01,1.212e-10
1.125e-01,2.299e-10
1.175e-01,4.237e-10
1.225e-01,7.608e-10
1.275e-01,1.333e-09
1.325e-01,2.285e-09
1.375e-01,3.835e-09
1.425e-01,6.314e-09
1.475e-01,1.021e-08
1.525e-01,1.624e-08
1.575e-01,2.542e-08
1.625e-01,3.922e-08
1.675e-01,5.968e-08
1.725e-01,8.963e-08
1.775e-01,1.330e-07
1.825e-01,1.950e-07
1.875e-01,2.828e-07
1.925e-01,4.059e-07
1.975e-01,5.769e-07
2.025e-01,8.122e-07
2.075e-01,1.133e-06
2.125e-01,1.568e-06
2.175e-01,2.152e-06
2.225e-01,2.930e-06
2.275e-01,3.960e-06
2.325e-01,5.314e-06
2.375e-01,7.083e-06
2.425e-01,9.378e-06
2.475e-01,1.234e-05
2.525e-01,1.614e-05
2.575e-01,2.099e-05
2.625e-01,2.713e-05
2.675e-01,3.490e-05
2.725e-01,4.464e-05
2.775e-01,5.683e-05
2.825e-01,7.199e-05
2.875e-01,9.077e-05
2.925e-01,1.139e-04
2.975e-01,1.424e-04
3.025e-01,1.772e-04
3.075e-01,2.196e-04
3.125e-01,2.710e-04
3.175e-01,3.332e-04
3.225e-01,4.082e-04
3.275e-01,4.981e-04
3.325e-01,6.058e-04
3.375e-01,7.342e-04
3.425e-01,8.868e-04
3.475e-01,1.068e-03
3.525e-01,1.281e-03
3.575e-01,1.533e-03
3.625e-01,1.829e-03
3.675e-01,2.175e-03
3.725e-01,2.579e-03
3.775e-01,3.049e-03
3.825e-01,3.596e-03
3.875e-01,4.230e-03
3.925e-01,4.961e-03
3.975e-01,5.805e-03
4.025e-01,6.775e-03
4.075e-01,7.888e-03
4.125e-01,9.161e-03
4.175e-01,1.062e-02
4.225e-01,1.227e-02
4.275e-01,1.415e-02
4.325e-01,1.629e-02
4.375e-01,1.871e-02
4.425e-01,2.144e-02
4.475e-01,2.451e-02
4.525e-01,2.797e-02
4.575e-01,3.185e-02
4.625e-01,3.620e-02
4.675e-01,4.106e-02
4.725e-01,4.649e-02
4.775e-01,5.253e-02
4.825e-01,5.925e-02
4.875e-01,6.670e-02
4.925e-01,7.495e-02
4.975e-01,8.407e-02
5.025e-01,9.413e-02
5.075e-01,1.052e-01
5.125e-01,1.174e-01
5.175e-01,1.308e-01
5.225e-01,1.454e-01
5.275e-01,1.614e-01
5.325e-01,1.789e-01
5.375e-01,1.980e-01
5.425e-01,2.187e-01
5.475e-01,2.412e-01
5.525e-01,2.656e-01
5.575e-01,2.920e-01
5.625e-01,3.205e-01
5.675e-01,3.513e-01
5.725e-01,3.844e-01
5.775e-01,4.200e-01
5.825e-01,4.582e-01
5.875e-01,4.991e-01
5.925e-01,5.428e-01
5.975e-01,5.895e-01
6.025e-01,6.392e-01
6.075e-01,6.921e-01
6.125e-01,7.483e-01
6.175e-01,8.077e-01
6.225e-01,8.707e-01
6.275e-01,9.371e-01
6.325e-01,1.007e+00
6.375e-01,1.081e+00
6.425e-01,1.158e+00
6.475e-01,1.239e+00
6.525e-01,1.323e+00
6.575e-01,1.412e+00
6.625e-01,1.503e+00
6.675e-01,1.599e+00
6.725e-01,1.698e+00
6.775e-01,1.800e+00
6.825e-01,1.905e+00
6.875e-01,2.014e+00
6.925e-01,2.125e+00
6.975e-01,2.238e+00
7.025e-01,2.355e+00
7.075e-01,2.473e+00
7.125e-01,2.592e+00
7.175e-01,2.713e+00
7.225e-01,2.835e+00
7.275e-01,2.957e+00
7.325e-01,3.079e+00
7.375e-01,3.200e+00
7.425e-01,3.320e+00
7.475e-01,3.438e+00
7.525e-01,3.554e+00
7.575e-01,3.666e+00
7.625e-01,3.775e+00
7.675e-01,3.878e+00
7.725e-01,3.977e+00
7.775e-01,4.069e+00
7.825e-01,4.154e+00
7.875e-01,4.231e+00
7.925e-01,4.300e+00
7.975e-01,4.359e+00
8.025e-01,4.408e+00
8.075e-01,4.446e+00
8.125e-01,4.473e+00
8.175e-01,4.486e+00
8.225e-01,4.487e+00
8.275e-01,4.474e+00
8.325e-01,4.447e+00
8.375e-01,4.405e+00
8.425e-01,4.348e+00
8.475e-01,4.277e+00
8.525e-01,4.189e+00
8.575e-01,4.087e+00
8.625e-01,3.970e+00
8.675e-01,3.838e+00
8.725e-01,3.692e+00
8.775e-01,3.532e+00
8.825e-01,3.360e+00
8.875e-01,3.177e+00
8.925e-01,2.983e+00
8.975e-01,2.781e+00
9.025e-01,2.572e+00
9.075e-01,2.357e+00
9.125e-01,2.140e+00
9.175e-01,1.922e+00
9.225e-01,1.705e+00
9.275e-01,1.492e+00
9.325e-01,1.286e+00
9.375e-01,1.089e+00
9.425e-01,9.024e-01
9.475e-01,7.301e-01
9.525e-01,5.736e-01
9.575e-01,4.348e-01
9.625e-01,3.152e-01
9.675e-01,2.158e-01
9.725e-01,1.369e-01
9.775e-01,7.800e-02
9.825e-01,3.784e-02
9.875e-01,1.401e-02
9.925e-01,2.982e-03
9.975e-01,9.831e-05
