transmittance,probability_density
8.407e-04,8.876e-28
2.522e-03,2.631e-17
4.203e-03,9.663e-13
5.885e-03,6.289e-10
7.566e-03,5.715e-08
9.247e-03,1.612e-06
1.093e-02,2.095e-05
1.261e-02,1.568e-04
1.429e-02,7.777e-04
1.597e-02,2.806e-03
1.765e-02,7.866e-03
1.934e-02,1.800e-02
2.102e-02,3.491e-02
2.270e-02,5.926e-02
2.438e-02,9.046e-02
2.606e-02,1.272e-01
2.774e-02,1.685e-01
2.942e-02,2.140e-01
3.110e-02,2.639e-01
3.279e-02,3.181e-01
3.447e-02,3.755e-01
3.615e-02,4.340e-01
3.783e-02,4.909e-01
3.951e-02,5.440e-01
4.119e-02,5.927e-01
4.287e-02,6.375e-01
4.456e-02,6.804e-01
4.624e-02,7.234e-01
4.792e-02,7.684e-01
4.960e-02,8.167e-01
5.128e-02,8.691e-01
5.296e-02,9.257e-01
5.464e-02,9.869e-01
5.633e-02,1.053e+00
5.801e-02,1.123e+00
5.969e-02,1.197e+00
6.137e-02,1.275e+00
6.305e-02,1.355e+00
6.473e-02,1.438e+00
6.641e-02,1.522e+00
6.809e-02,1.609e+00
6.978e-02,1.700e+00
7.146e-02,1.795e+00
7.314e-02,1.896e+00
7.482e-02,2.003e+00
7.650e-02,2.117e+00
7.818e-02,2.237e+00
7.986e-02,2.360e+00
8.155e-02,2.484e+00
8.323e-02,2.604e+00
8.491e-02,2.719e+00
8.659e-02,2.827e+00
8.827e-02,2.927e+00
8.995e-02,3.019e+00
9.163e-02,3.107e+00
9.331e-02,3.192e+00
9.500e-02,3.280e+00
9.668e-02,3.374e+00
9.836e-02,3.478e+00
1.000e-01,3.594e+00
1.017e-01,3.724e+00
1.034e-01,3.868e+00
1.051e-01,4.026e+00
1.068e-01,4.197e+00
1.084e-01,4.378e+00
1.101e-01,4.568e+00
1.118e-01,4.764e+00
1.135e-01,4.963e+00
1.152e-01,5.165e+00
1.169e-01,5.367e+00
1.185e-01,5.568e+00
1.202e-01,5.768e+00
1.219e-01,5.966e+00
1.236e-01,6.161e+00
1.253e-01,6.353e+00
1.269e-01,6.543e+00
1.286e-01,6.730e+00
1.303e-01,6.914e+00
1.320e-01,7.097e+00
1.337e-01,7.277e+00
1.353e-01,7.456e+00
1.370e-01,7.632e+00
1.387e-01,7.807e+00
1.404e-01,7.981e+00
1.421e-01,8.152e+00
1.438e-01,8.322e+00
1.454e-01,8.489e+00
1.471e-01,8.653e+00
1.488e-01,8.813e+00
1.505e-01,8.969e+00
1.522e-01,9.119e+00
1.538e-01,9.262e+00
1.555e-01,9.396e+00
1.572e-01,9.521e+00
1.589e-01,9.634e+00
1.606e-01,9.733e+00
1.623e-01,9.818e+00
1.639e-01,9.886e+00
1.656e-01,9.935e+00
1.673e-01,9.964e+00
1.690e-01,9.971e+00
1.707e-01,9.956e+00
1.723e-01,9.917e+00
1.740e-01,9.854e+00
1.757e-01,9.765e+00
1.774e-01,9.652e+00
1.791e-01,9.513e+00
1.807e-01,9.349e+00
1.824e-01,9.162e+00
1.841e-01,8.951e+00
1.858e-01,8.719e+00
1.875e-01,8.467e+00
1.892e-01,8.196e+00
1.908e-01,7.909e+00
1.925e-01,7.608e+00
1.942e-01,7.294e+00
1.959e-01,6.970e+00
1.976e-01,6.639e+00
1.992e-01,6.303e+00
2.009e-01,5.964e+00
2.026e-01,5.625e+00
2.043e-01,5.287e+00
2.060e-01,4.953e+00
2.076e-01,4.624e+00
2.093e-01,4.303e+00
2.110e-01,3.991e+00
2.127e-01,3.688e+00
2.144e-01,3.398e+00
2.161e-01,3.119e+00
2.177e-01,2.854e+00
2.194e-01,2.603e+00
2.211e-01,2.366e+00
2.228e-01,2.143e+00
2.245e-01,1.935e+00
2.261e-01,1.741e+00
2.278e-01,1.561e+00
2.295e-01,1.396e+00
2.312e-01,1.243e+00
2.329e-01,1.104e+00
2.345e-01,9.772e-01
2.362e-01,8.621e-01
2.379e-01,7.580e-01
2.396e-01,6.643e-01
2.413e-01,5.803e-01
2.430e-01,5.053e-01
2.446e-01,4.386e-01
2.463e-01,3.794e-01
2.480e-01,3.272e-01
2.497e-01,2.813e-01
2.514e-01,2.410e-01
2.530e-01,2.058e-01
2.547e-01,1.753e-01
2.564e-01,1.488e-01
2.581e-01,1.259e-01
2.598e-01,1.062e-01
2.614e-01,8.926e-02
2.631e-01,7.482e-02
2.648e-01,6.252e-02
2.665e-01,5.209e-02
2.682e-01,4.326e-02
2.699e-01,3.582e-02
2.715e-01,2.956e-02
2.732e-01,2.433e-02
2.749e-01,1.996e-02
2.766e-01,1.633e-02
2.783e-01,1.332e-02
2.799e-01,1.083e-02
2.816e-01,8.776e-03
2.833e-01,7.094e-03
2.850e-01,5.716e-03
2.867e-01,4.593e-03
2.884e-01,3.680e-03
2.900e-01,2.939e-03
2.917e-01,2.341e-03
2.934e-01,1.859e-03
2.951e-01,1.472e-03
2.968e-01,1.162e-03
2.984e-01,9.150e-04
3.001e-01,7.183e-04
3.018e-01,5.622e-04
3.035e-01,4.388e-04
3.052e-01,3.416e-04
3.068e-01,2.651e-04
3.085e-01,2.051e-04
3.102e-01,1.583e-04
3.119e-01,1.218e-04
3.136e-01,9.349e-05
3.153e-01,7.154e-05
3.169e-01,5.459e-05
3.186e-01,4.154e-05
3.203e-01,3.153e-05
3.220e-01,2.386e-05
3.237e-01,1.800e-05
3.253e-01,1.355e-05
3.270e-01,1.017e-05
3.287e-01,7.611e-06
3.304e-01,5.681e-06
3.321e-01,4.229e-06
3.337e-01,3.139e-06
3.354e-01,2.324e-06
