transmittance,probability_density
1.068e-04,1.000e-14
3.204e-04,1.246e-08
5.341e-04,4.993e-06
7.477e-04,1.848e-04
9.613e-04,2.142e-03
1.175e-03,1.249e-02
1.389e-03,4.635e-02
1.602e-03,1.253e-01
1.816e-03,2.689e-01
2.029e-03,4.869e-01
2.243e-03,7.777e-01
2.457e-03,1.133e+00
2.670e-03,1.545e+00
2.884e-03,2.003e+00
3.097e-03,2.500e+00
3.311e-03,3.019e+00
3.525e-03,3.545e+00
3.738e-03,4.060e+00
3.952e-03,4.552e+00
4.166e-03,5.015e+00
4.379e-03,5.455e+00
4.593e-03,5.881e+00
4.806e-03,6.305e+00
5.020e-03,6.741e+00
5.234e-03,7.198e+00
5.447e-03,7.684e+00
5.661e-03,8.204e+00
5.875e-03,8.759e+00
6.088e-03,9.346e+00
6.302e-03,9.963e+00
6.515e-03,1.061e+01
6.729e-03,1.127e+01
6.943e-03,1.196e+01
7.156e-03,1.266e+01
7.370e-03,1.339e+01
7.584e-03,1.416e+01
7.797e-03,1.495e+01
8.011e-03,1.578e+01
8.224e-03,1.664e+01
8.438e-03,1.753e+01
8.652e-03,1.843e+01
8.865e-03,1.933e+01
9.079e-03,2.022e+01
9.292e-03,2.109e+01
9.506e-03,2.192e+01
9.720e-03,2.272e+01
9.933e-03,2.349e+01
1.015e-02,2.424e+01
1.036e-02,2.499e+01
1.057e-02,2.574e+01
1.079e-02,2.653e+01
1.100e-02,2.737e+01
1.122e-02,2.827e+01
1.143e-02,2.924e+01
1.164e-02,3.029e+01
1.186e-02,3.141e+01
1.207e-02,3.261e+01
1.228e-02,3.388e+01
1.250e-02,3.520e+01
1.271e-02,3.656e+01
1.292e-02,3.796e+01
1.314e-02,3.939e+01
1.335e-02,4.082e+01
1.356e-02,4.226e+01
1.378e-02,4.370e+01
1.399e-02,4.513e+01
1.421e-02,4.655e+01
1.442e-02,4.795e+01
1.463e-02,4.934e+01
1.485e-02,5.072e+01
1.506e-02,5.207e+01
1.527e-02,5.341e+01
1.549e-02,5.473e+01
1.570e-02,5.604e+01
1.591e-02,5.732e+01
1.613e-02,5.859e+01
1.634e-02,5.984e+01
1.656e-02,6.107e+01
1.677e-02,6.227e+01
1.698e-02,6.344e+01
1.720e-02,6.459e+01
1.741e-02,6.569e+01
1.762e-02,6.675e+01
1.784e-02,6.777e+01
1.805e-02,6.873e+01
1.826e-02,6.962e+01
1.848e-02,7.044e+01
1.869e-02,7.118e+01
1.891e-02,7.183e+01
1.912e-02,7.238e+01
1.933e-02,7.282e+01
1.955e-02,7.314e+01
1.976e-02,7.334e+01
1.997e-02,7.341e+01
2.019e-02,7.335e+01
2.040e-02,7.314e+01
2.061e-02,7.278e+01
2.083e-02,7.227e+01
2.104e-02,7.162e+01
2.126e-02,7.082e+01
2.147e-02,6.986e+01
2.168e-02,6.877e+01
2.190e-02,6.753e+01
2.211e-02,6.617e+01
2.232e-02,6.467e+01
2.254e-02,6.306e+01
2.275e-02,6.134e+01
2.296e-02,5.952e+01
2.318e-02,5.762e+01
2.339e-02,5.563e+01
2.361e-02,5.359e+01
2.382e-02,5.149e+01
2.403e-02,4.935e+01
2.425e-02,4.718e+01
2.446e-02,4.500e+01
2.467e-02,4.282e+01
2.489e-02,4.063e+01
2.510e-02,3.847e+01
2.531e-02,3.633e+01
2.553e-02,3.423e+01
2.574e-02,3.217e+01
2.595e-02,3.016e+01
2.617e-02,2.821e+01
2.638e-02,2.633e+01
2.660e-02,2.451e+01
2.681e-02,2.276e+01
2.702e-02,2.109e+01
2.724e-02,1.950e+01
2.745e-02,1.798e+01
2.766e-02,1.655e+01
2.788e-02,1.519e+01
2.809e-02,1.392e+01
2.830e-02,1.272e+01
2.852e-02,1.160e+01
2.873e-02,1.056e+01
2.895e-02,9.587e+00
2.916e-02,8.687e+00
2.937e-02,7.854e+00
2.959e-02,7.086e+00
2.980e-02,6.379e+00
3.001e-02,5.732e+00
3.023e-02,5.139e+00
3.044e-02,4.598e+00
3.065e-02,4.106e+00
3.087e-02,3.659e+00
3.108e-02,3.254e+00
3.130e-02,2.888e+00
3.151e-02,2.559e+00
3.172e-02,2.262e+00
3.194e-02,1.996e+00
3.215e-02,1.758e+00
3.236e-02,1.546e+00
3.258e-02,1.357e+00
3.279e-02,1.188e+00
3.300e-02,1.039e+00
3.322e-02,9.065e-01
3.343e-02,7.897e-01
3.365e-02,6.867e-01
3.386e-02,5.960e-01
3.407e-02,5.165e-01
3.429e-02,4.468e-01
3.450e-02,3.858e-01
3.471e-02,3.326e-01
3.493e-02,2.862e-01
3.514e-02,2.459e-01
3.535e-02,2.109e-01
3.557e-02,1.806e-01
3.578e-02,1.544e-01
3.599e-02,1.318e-01
3.621e-02,1.124e-01
3.642e-02,9.560e-02
3.664e-02,8.122e-02
3.685e-02,6.890e-02
3.706e-02,5.835e-02
3.728e-02,4.935e-02
3.749e-02,4.167e-02
3.770e-02,3.513e-02
3.792e-02,2.958e-02
3.813e-02,2.487e-02
3.834e-02,2.087e-02
3.856e-02,1.750e-02
3.877e-02,1.465e-02
3.899e-02,1.224e-02
3.920e-02,1.022e-02
3.941e-02,8.518e-03
3.963e-02,7.091e-03
3.984e-02,5.894e-03
4.005e-02,4.893e-03
4.027e-02,4.057e-03
4.048e-02,3.359e-03
4.069e-02,2.777e-03
4.091e-02,2.293e-03
4.112e-02,1.891e-03
4.134e-02,1.558e-03
4.155e-02,1.282e-03
4.176e-02,1.053e-03
4.198e-02,8.639e-04
4.219e-02,7.080e-04
4.240e-02,5.796e-04
4.262e-02,4.738e-04
