transmittance,probability_density
8.177e-01,7.544e-19
8.186e-01,1.036e-18
8.196e-01,1.422e-18
8.205e-01,1.951e-18
8.214e-01,2.674e-18
8.223e-01,3.663e-18
8.232e-01,5.015e-18
8.241e-01,6.862e-18
8.250e-01,9.383e-18
8.260e-01,1.282e-17
8.269e-01,1.751e-17
8.278e-01,2.390e-17
8.287e-01,3.259e-17
8.296e-01,4.442e-17
8.305e-01,6.051e-17
8.314e-01,8.237e-17
8.323e-01,1.120e-16
8.333e-01,1.523e-16
8.342e-01,2.069e-16
8.351e-01,2.810e-16
8.360e-01,3.812e-16
8.369e-01,5.169e-16
8.378e-01,7.004e-16
8.387e-01,9.484e-16
8.397e-01,1.283e-15
8.406e-01,1.735e-15
8.415e-01,2.345e-15
8.424e-01,3.167e-15
8.433e-01,4.274e-15
8.442e-01,5.765e-15
8.451e-01,7.769e-15
8.461e-01,1.046e-14
8.470e-01,1.408e-14
8.479e-01,1.894e-14
8.488e-01,2.546e-14
8.497e-01,3.419e-14
8.506e-01,4.589e-14
8.515e-01,6.155e-14
8.524e-01,8.250e-14
8.534e-01,1.105e-13
8.543e-01,1.479e-13
8.552e-01,1.978e-13
8.561e-01,2.643e-13
8.570e-01,3.530e-13
8.579e-01,4.711e-13
8.588e-01,6.283e-13
8.598e-01,8.373e-13
8.607e-01,1.115e-12
8.616e-01,1.484e-12
8.625e-01,1.973e-12
8.634e-01,2.621e-12
8.643e-01,3.480e-12
8.652e-01,4.617e-12
8.662e-01,6.120e-12
8.671e-01,8.107e-12
8.680e-01,1.073e-11
8.689e-01,1.419e-11
8.698e-01,1.876e-11
8.707e-01,2.477e-11
8.716e-01,3.269e-11
8.725e-01,4.310e-11
8.735e-01,5.678e-11
8.744e-01,7.474e-11
8.753e-01,9.831e-11
8.762e-01,1.292e-10
8.771e-01,1.697e-10
8.780e-01,2.226e-10
8.789e-01,2.919e-10
8.799e-01,3.823e-10
8.808e-01,5.004e-10
8.817e-01,6.544e-10
8.826e-01,8.551e-10
8.835e-01,1.116e-09
8.844e-01,1.456e-09
8.853e-01,1.898e-09
8.863e-01,2.471e-09
8.872e-01,3.215e-09
8.881e-01,4.178e-09
8.890e-01,5.426e-09
8.899e-01,7.040e-09
8.908e-01,9.126e-09
8.917e-01,1.182e-08
8.926e-01,1.529e-08
8.936e-01,1.977e-08
8.945e-01,2.553e-08
8.954e-01,3.294e-08
8.963e-01,4.246e-08
8.972e-01,5.467e-08
8.981e-01,7.034e-08
8.990e-01,9.040e-08
9.000e-01,1.161e-07
9.009e-01,1.489e-07
9.018e-01,1.908e-07
9.027e-01,2.442e-07
9.036e-01,3.123e-07
9.045e-01,3.989e-07
9.054e-01,5.091e-07
9.064e-01,6.490e-07
9.073e-01,8.264e-07
9.082e-01,1.051e-06
9.091e-01,1.336e-06
9.100e-01,1.696e-06
9.109e-01,2.150e-06
9.118e-01,2.723e-06
9.127e-01,3.444e-06
9.137e-01,4.352e-06
9.146e-01,5.494e-06
9.155e-01,6.926e-06
9.164e-01,8.722e-06
9.173e-01,1.097e-05
9.182e-01,1.378e-05
9.191e-01,1.729e-05
9.201e-01,2.168e-05
9.210e-01,2.713e-05
9.219e-01,3.393e-05
9.228e-01,4.237e-05
9.237e-01,5.284e-05
9.246e-01,6.582e-05
9.255e-01,8.190e-05
9.265e-01,1.018e-04
9.274e-01,1.263e-04
9.283e-01,1.565e-04
9.292e-01,1.937e-04
9.301e-01,2.395e-04
9.310e-01,2.957e-04
9.319e-01,3.647e-04
9.328e-01,4.491e-04
9.338e-01,5.523e-04
9.347e-01,6.784e-04
9.356e-01,8.321e-04
9.365e-01,1.019e-03
9.374e-01,1.247e-03
9.383e-01,1.524e-03
9.392e-01,1.860e-03
9.402e-01,2.267e-03
9.411e-01,2.759e-03
9.420e-01,3.354e-03
9.429e-01,4.071e-03
9.438e-01,4.937e-03
9.447e-01,5.979e-03
9.456e-01,7.232e-03
9.466e-01,8.737e-03
9.475e-01,1.054e-02
9.484e-01,1.271e-02
9.493e-01,1.530e-02
9.502e-01,1.840e-02
9.511e-01,2.211e-02
9.520e-01,2.654e-02
9.529e-01,3.182e-02
9.539e-01,3.813e-02
9.548e-01,4.565e-02
9.557e-01,5.461e-02
9.566e-01,6.530e-02
9.575e-01,7.804e-02
9.584e-01,9.323e-02
9.593e-01,1.114e-01
9.603e-01,1.330e-01
9.612e-01,1.589e-01
9.621e-01,1.899e-01
9.630e-01,2.272e-01
9.639e-01,2.720e-01
9.648e-01,3.260e-01
9.657e-01,3.916e-01
9.667e-01,4.714e-01
9.676e-01,5.691e-01
9.685e-01,6.893e-01
9.694e-01,8.384e-01
9.703e-01,1.025e+00
9.712e-01,1.260e+00
9.721e-01,1.559e+00
9.730e-01,1.945e+00
9.740e-01,2.449e+00
9.749e-01,3.117e+00
9.758e-01,4.014e+00
9.767e-01,5.239e+00
9.776e-01,6.939e+00
9.785e-01,9.332e+00
9.794e-01,1.274e+01
9.804e-01,1.762e+01
9.813e-01,2.459e+01
9.822e-01,3.437e+01
9.831e-01,4.767e+01
9.840e-01,6.482e+01
9.849e-01,8.521e+01
9.858e-01,1.066e+02
9.868e-01,1.248e+02
9.877e-01,1.341e+02
9.886e-01,1.296e+02
9.895e-01,1.099e+02
9.904e-01,7.970e+01
9.913e-01,4.774e+01
9.922e-01,2.269e+01
9.931e-01,8.139e+00
9.941e-01,2.075e+00
9.950e-01,3.517e-01
9.959e-01,3.734e-02
9.968e-01,2.374e-03
9.977e-01,7.693e-05
9.986e-01,6.081e-07
9.995e-01,2.929e-11
