transmittance,probability_density
7.697e-01,5.333e-17
7.708e-01,7.318e-17
7.720e-01,1.003e-16
7.731e-01,1.374e-16
7.743e-01,1.881e-16
7.754e-01,2.573e-16
7.766e-01,3.515e-16
7.777e-01,4.799e-16
7.789e-01,6.545e-16
7.801e-01,8.920e-16
7.812e-01,1.215e-15
7.824e-01,1.652e-15
7.835e-01,2.246e-15
7.847e-01,3.050e-15
7.858e-01,4.139e-15
7.870e-01,5.611e-15
7.881e-01,7.600e-15
7.893e-01,1.029e-14
7.904e-01,1.391e-14
7.916e-01,1.879e-14
7.928e-01,2.536e-14
7.939e-01,3.419e-14
7.951e-01,4.607e-14
7.962e-01,6.201e-14
7.974e-01,8.340e-14
7.985e-01,1.121e-13
7.997e-01,1.504e-13
8.008e-01,2.018e-13
8.020e-01,2.704e-13
8.032e-01,3.620e-13
8.043e-01,4.842e-13
8.055e-01,6.470e-13
8.066e-01,8.638e-13
8.078e-01,1.152e-12
8.089e-01,1.535e-12
8.101e-01,2.044e-12
8.112e-01,2.719e-12
8.124e-01,3.613e-12
8.135e-01,4.796e-12
8.147e-01,6.362e-12
8.158e-01,8.430e-12
8.170e-01,1.116e-11
8.182e-01,1.476e-11
8.193e-01,1.950e-11
8.205e-01,2.574e-11
8.216e-01,3.394e-11
8.228e-01,4.471e-11
8.239e-01,5.885e-11
8.251e-01,7.737e-11
8.262e-01,1.016e-10
8.274e-01,1.333e-10
8.285e-01,1.748e-10
8.297e-01,2.289e-10
8.309e-01,2.994e-10
8.320e-01,3.913e-10
8.332e-01,5.109e-10
8.343e-01,6.663e-10
8.355e-01,8.680e-10
8.366e-01,1.130e-09
8.378e-01,1.469e-09
8.389e-01,1.907e-09
8.401e-01,2.474e-09
8.412e-01,3.207e-09
8.424e-01,4.151e-09
8.436e-01,5.368e-09
8.447e-01,6.934e-09
8.459e-01,8.948e-09
8.470e-01,1.153e-08
8.482e-01,1.485e-08
8.493e-01,1.910e-08
8.505e-01,2.453e-08
8.516e-01,3.147e-08
8.528e-01,4.034e-08
8.539e-01,5.164e-08
8.551e-01,6.604e-08
8.563e-01,8.434e-08
8.574e-01,1.076e-07
8.586e-01,1.371e-07
8.597e-01,1.745e-07
8.609e-01,2.218e-07
8.620e-01,2.816e-07
8.632e-01,3.571e-07
8.643e-01,4.523e-07
8.655e-01,5.722e-07
8.666e-01,7.229e-07
8.678e-01,9.121e-07
8.690e-01,1.149e-06
8.701e-01,1.447e-06
8.713e-01,1.819e-06
8.724e-01,2.283e-06
8.736e-01,2.862e-06
8.747e-01,3.584e-06
8.759e-01,4.481e-06
8.770e-01,5.595e-06
8.782e-01,6.978e-06
8.793e-01,8.690e-06
8.805e-01,1.081e-05
8.817e-01,1.342e-05
8.828e-01,1.664e-05
8.840e-01,2.061e-05
8.851e-01,2.549e-05
8.863e-01,3.148e-05
8.874e-01,3.882e-05
8.886e-01,4.780e-05
8.897e-01,5.877e-05
8.909e-01,7.215e-05
8.921e-01,8.844e-05
8.932e-01,1.083e-04
8.944e-01,1.323e-04
8.955e-01,1.615e-04
8.967e-01,1.967e-04
8.978e-01,2.393e-04
8.990e-01,2.907e-04
9.001e-01,3.526e-04
9.013e-01,4.269e-04
9.024e-01,5.161e-04
9.036e-01,6.229e-04
9.047e-01,7.506e-04
9.059e-01,9.030e-04
9.071e-01,1.085e-03
9.082e-01,1.301e-03
9.094e-01,1.557e-03
9.105e-01,1.861e-03
9.117e-01,2.221e-03
9.128e-01,2.645e-03
9.140e-01,3.146e-03
9.151e-01,3.735e-03
9.163e-01,4.428e-03
9.174e-01,5.239e-03
9.186e-01,6.190e-03
9.198e-01,7.300e-03
9.209e-01,8.595e-03
9.221e-01,1.010e-02
9.232e-01,1.186e-02
9.244e-01,1.389e-02
9.255e-01,1.625e-02
9.267e-01,1.898e-02
9.278e-01,2.213e-02
9.290e-01,2.577e-02
9.302e-01,2.996e-02
9.313e-01,3.477e-02
9.325e-01,4.030e-02
9.336e-01,4.665e-02
9.348e-01,5.392e-02
9.359e-01,6.224e-02
9.371e-01,7.176e-02
9.382e-01,8.264e-02
9.394e-01,9.506e-02
9.405e-01,1.092e-01
9.417e-01,1.254e-01
9.428e-01,1.439e-01
9.440e-01,1.650e-01
9.452e-01,1.890e-01
9.463e-01,2.165e-01
9.475e-01,2.480e-01
9.486e-01,2.841e-01
9.498e-01,3.254e-01
9.509e-01,3.730e-01
9.521e-01,4.279e-01
9.532e-01,4.913e-01
9.544e-01,5.650e-01
9.556e-01,6.508e-01
9.567e-01,7.512e-01
9.579e-01,8.694e-01
9.590e-01,1.009e+00
9.602e-01,1.175e+00
9.613e-01,1.374e+00
9.625e-01,1.614e+00
9.636e-01,1.906e+00
9.648e-01,2.263e+00
9.659e-01,2.704e+00
9.671e-01,3.256e+00
9.683e-01,3.952e+00
9.694e-01,4.840e+00
9.706e-01,5.988e+00
9.717e-01,7.487e+00
9.729e-01,9.468e+00
9.740e-01,1.211e+01
9.752e-01,1.566e+01
9.763e-01,2.041e+01
9.775e-01,2.673e+01
9.786e-01,3.497e+01
9.798e-01,4.531e+01
9.809e-01,5.757e+01
9.821e-01,7.087e+01
9.833e-01,8.334e+01
9.844e-01,9.219e+01
9.856e-01,9.427e+01
9.867e-01,8.734e+01
9.879e-01,7.161e+01
9.890e-01,5.052e+01
9.902e-01,2.961e+01
9.913e-01,1.379e+01
9.925e-01,4.817e+00
9.937e-01,1.167e+00
9.948e-01,1.768e-01
9.960e-01,1.446e-02
9.971e-01,4.899e-04
9.983e-01,3.263e-06
9.994e-01,1.032e-10
