transmittance,probability_density
6.317e-01,8.171e-10
6.336e-01,1.236e-09
6.354e-01,1.861e-09
6.373e-01,2.789e-09
6.391e-01,4.161e-09
6.410e-01,6.179e-09
6.428e-01,9.132e-09
6.447e-01,1.343e-08
6.465e-01,1.967e-08
6.484e-01,2.866e-08
6.502e-01,4.157e-08
6.520e-01,6.001e-08
6.539e-01,8.622e-08
6.557e-01,1.233e-07
6.576e-01,1.755e-07
6.594e-01,2.485e-07
6.613e-01,3.503e-07
6.631e-01,4.915e-07
6.650e-01,6.861e-07
6.668e-01,9.533e-07
6.687e-01,1.318e-06
6.705e-01,1.813e-06
6.724e-01,2.483e-06
6.742e-01,3.383e-06
6.760e-01,4.587e-06
6.779e-01,6.188e-06
6.797e-01,8.306e-06
6.816e-01,1.110e-05
6.834e-01,1.475e-05
6.853e-01,1.950e-05
6.871e-01,2.566e-05
6.890e-01,3.359e-05
6.908e-01,4.374e-05
6.927e-01,5.668e-05
6.945e-01,7.306e-05
6.963e-01,9.370e-05
6.982e-01,1.195e-04
7.000e-01,1.517e-04
7.019e-01,1.915e-04
7.037e-01,2.405e-04
7.056e-01,3.004e-04
7.074e-01,3.732e-04
7.093e-01,4.612e-04
7.111e-01,5.668e-04
7.130e-01,6.928e-04
7.148e-01,8.423e-04
7.167e-01,1.018e-03
7.185e-01,1.224e-03
7.203e-01,1.464e-03
7.222e-01,1.740e-03
7.240e-01,2.057e-03
7.259e-01,2.418e-03
7.277e-01,2.825e-03
7.296e-01,3.282e-03
7.314e-01,3.791e-03
7.333e-01,4.353e-03
7.351e-01,4.969e-03
7.370e-01,5.639e-03
7.388e-01,6.360e-03
7.406e-01,7.129e-03
7.425e-01,7.943e-03
7.443e-01,8.796e-03
7.462e-01,9.679e-03
7.480e-01,1.059e-02
7.499e-01,1.150e-02
7.517e-01,1.242e-02
7.536e-01,1.333e-02
7.554e-01,1.420e-02
7.573e-01,1.504e-02
7.591e-01,1.583e-02
7.610e-01,1.654e-02
7.628e-01,1.718e-02
7.646e-01,1.772e-02
7.665e-01,1.816e-02
7.683e-01,1.849e-02
7.702e-01,1.870e-02
7.720e-01,1.879e-02
7.739e-01,1.875e-02
7.757e-01,1.861e-02
7.776e-01,1.835e-02
7.794e-01,1.799e-02
7.813e-01,1.754e-02
7.831e-01,1.702e-02
7.850e-01,1.645e-02
7.868e-01,1.584e-02
7.886e-01,1.522e-02
7.905e-01,1.460e-02
7.923e-01,1.402e-02
7.942e-01,1.348e-02
7.960e-01,1.303e-02
7.979e-01,1.266e-02
7.997e-01,1.241e-02
8.016e-01,1.229e-02
8.034e-01,1.232e-02
8.053e-01,1.251e-02
8.071e-01,1.287e-02
8.089e-01,1.340e-02
8.108e-01,1.412e-02
8.126e-01,1.503e-02
8.145e-01,1.613e-02
8.163e-01,1.743e-02
8.182e-01,1.893e-02
8.200e-01,2.062e-02
8.219e-01,2.250e-02
8.237e-01,2.458e-02
8.256e-01,2.686e-02
8.274e-01,2.934e-02
8.293e-01,3.201e-02
8.311e-01,3.488e-02
8.329e-01,3.796e-02
8.348e-01,4.125e-02
8.366e-01,4.476e-02
8.385e-01,4.850e-02
8.403e-01,5.248e-02
8.422e-01,5.672e-02
8.440e-01,6.123e-02
8.459e-01,6.602e-02
8.477e-01,7.113e-02
8.496e-01,7.657e-02
8.514e-01,8.237e-02
8.533e-01,8.856e-02
8.551e-01,9.515e-02
8.569e-01,1.022e-01
8.588e-01,1.097e-01
8.606e-01,1.178e-01
8.625e-01,1.264e-01
8.643e-01,1.355e-01
8.662e-01,1.454e-01
8.680e-01,1.559e-01
8.699e-01,1.672e-01
8.717e-01,1.793e-01
8.736e-01,1.923e-01
8.754e-01,2.062e-01
8.772e-01,2.212e-01
8.791e-01,2.373e-01
8.809e-01,2.547e-01
8.828e-01,2.734e-01
8.846e-01,2.937e-01
8.865e-01,3.156e-01
8.883e-01,3.395e-01
8.902e-01,3.653e-01
8.920e-01,3.935e-01
8.939e-01,4.242e-01
8.957e-01,4.578e-01
8.976e-01,4.946e-01
8.994e-01,5.350e-01
9.012e-01,5.794e-01
9.031e-01,6.284e-01
9.049e-01,6.825e-01
9.068e-01,7.425e-01
9.086e-01,8.090e-01
9.105e-01,8.829e-01
9.123e-01,9.652e-01
9.142e-01,1.057e+00
9.160e-01,1.160e+00
9.179e-01,1.275e+00
9.197e-01,1.404e+00
9.215e-01,1.549e+00
9.234e-01,1.713e+00
9.252e-01,1.898e+00
9.271e-01,2.107e+00
9.289e-01,2.346e+00
9.308e-01,2.619e+00
9.326e-01,2.931e+00
9.345e-01,3.291e+00
9.363e-01,3.705e+00
9.382e-01,4.186e+00
9.400e-01,4.744e+00
9.419e-01,5.396e+00
9.437e-01,6.157e+00
9.455e-01,7.047e+00
9.474e-01,8.090e+00
9.492e-01,9.309e+00
9.511e-01,1.073e+01
9.529e-01,1.239e+01
9.548e-01,1.429e+01
9.566e-01,1.646e+01
9.585e-01,1.891e+01
9.603e-01,2.159e+01
9.622e-01,2.446e+01
9.640e-01,2.741e+01
9.659e-01,3.026e+01
9.677e-01,3.279e+01
9.695e-01,3.471e+01
9.714e-01,3.568e+01
9.732e-01,3.540e+01
9.751e-01,3.364e+01
9.769e-01,3.034e+01
9.788e-01,2.568e+01
9.806e-01,2.013e+01
9.825e-01,1.435e+01
9.843e-01,9.099e+00
9.862e-01,4.971e+00
9.880e-01,2.238e+00
9.898e-01,7.777e-01
9.917e-01,1.875e-01
9.935e-01,2.605e-02
9.954e-01,1.433e-03
9.972e-01,1.188e-05
9.991e-01,1.731e-10
