transmittance,probability_density
8.297e-01,3.423e-20
8.306e-01,4.775e-20
8.314e-01,6.657e-20
8.323e-01,9.275e-20
8.331e-01,1.291e-19
8.340e-01,1.797e-19
8.348e-01,2.499e-19
8.357e-01,3.473e-19
8.365e-01,4.825e-19
8.374e-01,6.697e-19
8.382e-01,9.291e-19
8.391e-01,1.288e-18
8.399e-01,1.785e-18
8.408e-01,2.472e-18
8.417e-01,3.420e-18
8.425e-01,4.731e-18
8.434e-01,6.538e-18
8.442e-01,9.031e-18
8.451e-01,1.247e-17
8.459e-01,1.720e-17
8.468e-01,2.371e-17
8.476e-01,3.267e-17
8.485e-01,4.498e-17
8.493e-01,6.190e-17
8.502e-01,8.512e-17
8.510e-01,1.170e-16
8.519e-01,1.607e-16
8.527e-01,2.205e-16
8.536e-01,3.024e-16
8.545e-01,4.145e-16
8.553e-01,5.678e-16
8.562e-01,7.773e-16
8.570e-01,1.063e-15
8.579e-01,1.454e-15
8.587e-01,1.986e-15
8.596e-01,2.711e-15
8.604e-01,3.699e-15
8.613e-01,5.044e-15
8.621e-01,6.872e-15
8.630e-01,9.357e-15
8.638e-01,1.273e-14
8.647e-01,1.731e-14
8.656e-01,2.352e-14
8.664e-01,3.194e-14
8.673e-01,4.334e-14
8.681e-01,5.876e-14
8.690e-01,7.962e-14
8.698e-01,1.078e-13
8.707e-01,1.459e-13
8.715e-01,1.972e-13
8.724e-01,2.665e-13
8.732e-01,3.598e-13
8.741e-01,4.854e-13
8.749e-01,6.544e-13
8.758e-01,8.816e-13
8.766e-01,1.187e-12
8.775e-01,1.596e-12
8.784e-01,2.146e-12
8.792e-01,2.882e-12
8.801e-01,3.868e-12
8.809e-01,5.188e-12
8.818e-01,6.952e-12
8.826e-01,9.309e-12
8.835e-01,1.246e-11
8.843e-01,1.665e-11
8.852e-01,2.225e-11
8.860e-01,2.970e-11
8.869e-01,3.961e-11
8.877e-01,5.278e-11
8.886e-01,7.029e-11
8.895e-01,9.352e-11
8.903e-01,1.243e-10
8.912e-01,1.651e-10
8.920e-01,2.192e-10
8.929e-01,2.907e-10
8.937e-01,3.851e-10
8.946e-01,5.098e-10
8.954e-01,6.743e-10
8.963e-01,8.912e-10
8.971e-01,1.177e-09
8.980e-01,1.552e-09
8.988e-01,2.046e-09
8.997e-01,2.694e-09
9.006e-01,3.545e-09
9.014e-01,4.659e-09
9.023e-01,6.119e-09
9.031e-01,8.028e-09
9.040e-01,1.052e-08
9.048e-01,1.378e-08
9.057e-01,1.803e-08
9.065e-01,2.356e-08
9.074e-01,3.077e-08
9.082e-01,4.014e-08
9.091e-01,5.231e-08
9.099e-01,6.810e-08
9.108e-01,8.857e-08
9.116e-01,1.151e-07
9.125e-01,1.493e-07
9.134e-01,1.936e-07
9.142e-01,2.508e-07
9.151e-01,3.245e-07
9.159e-01,4.194e-07
9.168e-01,5.414e-07
9.176e-01,6.982e-07
9.185e-01,8.994e-07
9.193e-01,1.157e-06
9.202e-01,1.488e-06
9.210e-01,1.910e-06
9.219e-01,2.449e-06
9.227e-01,3.137e-06
9.236e-01,4.014e-06
9.245e-01,5.129e-06
9.253e-01,6.547e-06
9.262e-01,8.347e-06
9.270e-01,1.063e-05
9.279e-01,1.352e-05
9.287e-01,1.717e-05
9.296e-01,2.178e-05
9.304e-01,2.760e-05
9.313e-01,3.493e-05
9.321e-01,4.415e-05
9.330e-01,5.574e-05
9.338e-01,7.027e-05
9.347e-01,8.848e-05
9.356e-01,1.113e-04
9.364e-01,1.397e-04
9.373e-01,1.752e-04
9.381e-01,2.195e-04
9.390e-01,2.746e-04
9.398e-01,3.431e-04
9.407e-01,4.281e-04
9.415e-01,5.334e-04
9.424e-01,6.638e-04
9.432e-01,8.250e-04
9.441e-01,1.024e-03
9.449e-01,1.269e-03
9.458e-01,1.572e-03
9.466e-01,1.943e-03
9.475e-01,2.400e-03
9.484e-01,2.959e-03
9.492e-01,3.646e-03
9.501e-01,4.485e-03
9.509e-01,5.512e-03
9.518e-01,6.766e-03
9.526e-01,8.296e-03
9.535e-01,1.016e-02
9.543e-01,1.243e-02
9.552e-01,1.519e-02
9.560e-01,1.855e-02
9.569e-01,2.263e-02
9.577e-01,2.759e-02
9.586e-01,3.361e-02
9.595e-01,4.091e-02
9.603e-01,4.978e-02
9.612e-01,6.054e-02
9.620e-01,7.361e-02
9.629e-01,8.949e-02
9.637e-01,1.088e-01
9.646e-01,1.323e-01
9.654e-01,1.610e-01
9.663e-01,1.961e-01
9.671e-01,2.392e-01
9.680e-01,2.922e-01
9.688e-01,3.577e-01
9.697e-01,4.391e-01
9.705e-01,5.408e-01
9.714e-01,6.687e-01
9.723e-01,8.311e-01
9.731e-01,1.039e+00
9.740e-01,1.308e+00
9.748e-01,1.660e+00
9.757e-01,2.128e+00
9.765e-01,2.759e+00
9.774e-01,3.622e+00
9.782e-01,4.826e+00
9.791e-01,6.533e+00
9.799e-01,8.993e+00
9.808e-01,1.258e+01
9.816e-01,1.784e+01
9.825e-01,2.551e+01
9.834e-01,3.650e+01
9.842e-01,5.170e+01
9.851e-01,7.153e+01
9.859e-01,9.519e+01
9.868e-01,1.198e+02
9.876e-01,1.401e+02
9.885e-01,1.492e+02
9.893e-01,1.415e+02
9.902e-01,1.167e+02
9.910e-01,8.116e+01
9.919e-01,4.599e+01
9.927e-01,2.034e+01
9.936e-01,6.666e+00
9.945e-01,1.523e+00
9.953e-01,2.286e-01
9.962e-01,2.176e-02
9.970e-01,1.314e-03
9.979e-01,4.329e-05
9.987e-01,3.571e-07
9.996e-01,1.961e-11
