transmittance,probability_density
1.068e-04,1.132e-34
3.204e-04,1.865e-12
5.341e-04,1.993e-06
7.477e-04,6.703e-04
9.613e-04,1.060e-02
1.175e-03,4.054e-02
1.389e-03,7.463e-02
1.602e-03,9.674e-02
1.816e-03,1.146e-01
2.029e-03,1.423e-01
2.243e-03,1.881e-01
2.457e-03,2.554e-01
2.670e-03,3.455e-01
2.884e-03,4.575e-01
3.097e-03,5.901e-01
3.311e-03,7.422e-01
3.525e-03,9.130e-01
3.738e-03,1.103e+00
3.952e-03,1.312e+00
4.166e-03,1.542e+00
4.379e-03,1.792e+00
4.593e-03,2.066e+00
4.806e-03,2.364e+00
5.020e-03,2.689e+00
5.234e-03,3.044e+00
5.447e-03,3.430e+00
5.661e-03,3.850e+00
5.875e-03,4.308e+00
6.088e-03,4.807e+00
6.302e-03,5.349e+00
6.515e-03,5.939e+00
6.729e-03,6.577e+00
6.943e-03,7.269e+00
7.156e-03,8.015e+00
7.370e-03,8.820e+00
7.584e-03,9.685e+00
7.797e-03,1.061e+01
8.011e-03,1.160e+01
8.224e-03,1.266e+01
8.438e-03,1.379e+01
8.652e-03,1.498e+01
8.865e-03,1.625e+01
9.079e-03,1.758e+01
9.292e-03,1.898e+01
9.506e-03,2.046e+01
9.720e-03,2.200e+01
9.933e-03,2.362e+01
1.015e-02,2.530e+01
1.036e-02,2.706e+01
1.057e-02,2.888e+01
1.079e-02,3.077e+01
1.100e-02,3.273e+01
1.122e-02,3.475e+01
1.143e-02,3.682e+01
1.164e-02,3.895e+01
1.186e-02,4.113e+01
1.207e-02,4.335e+01
1.228e-02,4.560e+01
1.250e-02,4.789e+01
1.271e-02,5.019e+01
1.292e-02,5.250e+01
1.314e-02,5.481e+01
1.335e-02,5.710e+01
1.356e-02,5.937e+01
1.378e-02,6.160e+01
1.399e-02,6.377e+01
1.421e-02,6.589e+01
1.442e-02,6.792e+01
1.463e-02,6.986e+01
1.485e-02,7.170e+01
1.506e-02,7.342e+01
1.527e-02,7.501e+01
1.549e-02,7.646e+01
1.570e-02,7.777e+01
1.591e-02,7.892e+01
1.613e-02,7.990e+01
1.634e-02,8.072e+01
1.656e-02,8.136e+01
1.677e-02,8.182e+01
1.698e-02,8.211e+01
1.720e-02,8.221e+01
1.741e-02,8.214e+01
1.762e-02,8.189e+01
1.784e-02,8.147e+01
1.805e-02,8.089e+01
1.826e-02,8.014e+01
1.848e-02,7.924e+01
1.869e-02,7.819e+01
1.891e-02,7.700e+01
1.912e-02,7.569e+01
1.933e-02,7.426e+01
1.955e-02,7.272e+01
1.976e-02,7.108e+01
1.997e-02,6.936e+01
2.019e-02,6.756e+01
2.040e-02,6.569e+01
2.061e-02,6.376e+01
2.083e-02,6.179e+01
2.104e-02,5.979e+01
2.126e-02,5.776e+01
2.147e-02,5.571e+01
2.168e-02,5.365e+01
2.190e-02,5.159e+01
2.211e-02,4.954e+01
2.232e-02,4.751e+01
2.254e-02,4.549e+01
2.275e-02,4.350e+01
2.296e-02,4.155e+01
2.318e-02,3.963e+01
2.339e-02,3.775e+01
2.361e-02,3.592e+01
2.382e-02,3.413e+01
2.403e-02,3.239e+01
2.425e-02,3.071e+01
2.446e-02,2.909e+01
2.467e-02,2.751e+01
2.489e-02,2.600e+01
2.510e-02,2.454e+01
2.531e-02,2.315e+01
2.553e-02,2.181e+01
2.574e-02,2.052e+01
2.595e-02,1.930e+01
2.617e-02,1.813e+01
2.638e-02,1.702e+01
2.660e-02,1.596e+01
2.681e-02,1.495e+01
2.702e-02,1.400e+01
2.724e-02,1.309e+01
2.745e-02,1.224e+01
2.766e-02,1.143e+01
2.788e-02,1.067e+01
2.809e-02,9.947e+00
2.830e-02,9.270e+00
2.852e-02,8.632e+00
2.873e-02,8.033e+00
2.895e-02,7.470e+00
2.916e-02,6.943e+00
2.937e-02,6.448e+00
2.959e-02,5.985e+00
2.980e-02,5.552e+00
3.001e-02,5.147e+00
3.023e-02,4.769e+00
3.044e-02,4.416e+00
3.065e-02,4.087e+00
3.087e-02,3.780e+00
3.108e-02,3.495e+00
3.130e-02,3.230e+00
3.151e-02,2.983e+00
3.172e-02,2.754e+00
3.194e-02,2.541e+00
3.215e-02,2.343e+00
3.236e-02,2.160e+00
3.258e-02,1.991e+00
3.279e-02,1.834e+00
3.300e-02,1.688e+00
3.322e-02,1.554e+00
3.343e-02,1.429e+00
3.365e-02,1.314e+00
3.386e-02,1.208e+00
3.407e-02,1.110e+00
3.429e-02,1.020e+00
3.450e-02,9.364e-01
3.471e-02,8.596e-01
3.493e-02,7.888e-01
3.514e-02,7.236e-01
3.535e-02,6.636e-01
3.557e-02,6.084e-01
3.578e-02,5.576e-01
3.599e-02,5.109e-01
3.621e-02,4.680e-01
3.642e-02,4.285e-01
3.664e-02,3.923e-01
3.685e-02,3.591e-01
3.706e-02,3.286e-01
3.728e-02,3.006e-01
3.749e-02,2.749e-01
3.770e-02,2.513e-01
3.792e-02,2.298e-01
3.813e-02,2.100e-01
3.834e-02,1.919e-01
3.856e-02,1.753e-01
3.877e-02,1.601e-01
3.899e-02,1.462e-01
3.920e-02,1.335e-01
3.941e-02,1.219e-01
3.963e-02,1.112e-01
3.984e-02,1.015e-01
4.005e-02,9.259e-02
4.027e-02,8.446e-02
4.048e-02,7.704e-02
4.069e-02,7.025e-02
4.091e-02,6.405e-02
4.112e-02,5.839e-02
4.134e-02,5.323e-02
4.155e-02,4.851e-02
4.176e-02,4.421e-02
4.198e-02,4.028e-02
4.219e-02,3.670e-02
4.240e-02,3.343e-02
4.262e-02,3.045e-02
