transmittance,probability_density
9.067e-04,5.716e-59
2.720e-03,8.290e-24
4.533e-03,2.333e-13
6.347e-03,1.604e-08
8.160e-03,5.748e-06
9.973e-03,1.424e-04
1.179e-02,7.759e-04
1.360e-02,1.769e-03
1.541e-02,2.628e-03
1.723e-02,3.504e-03
1.904e-02,4.794e-03
2.085e-02,6.638e-03
2.267e-02,9.021e-03
2.448e-02,1.202e-02
2.629e-02,1.590e-02
2.811e-02,2.103e-02
2.992e-02,2.768e-02
3.173e-02,3.601e-02
3.355e-02,4.600e-02
3.536e-02,5.756e-02
3.717e-02,7.060e-02
3.899e-02,8.505e-02
4.080e-02,1.009e-01
4.261e-02,1.184e-01
4.443e-02,1.376e-01
4.624e-02,1.590e-01
4.805e-02,1.828e-01
4.987e-02,2.094e-01
5.168e-02,2.393e-01
5.349e-02,2.727e-01
5.531e-02,3.099e-01
5.712e-02,3.511e-01
5.893e-02,3.965e-01
6.075e-02,4.464e-01
6.256e-02,5.008e-01
6.437e-02,5.601e-01
6.619e-02,6.243e-01
6.800e-02,6.938e-01
6.981e-02,7.688e-01
7.163e-02,8.497e-01
7.344e-02,9.368e-01
7.525e-02,1.030e+00
7.707e-02,1.131e+00
7.888e-02,1.238e+00
8.069e-02,1.353e+00
8.251e-02,1.477e+00
8.432e-02,1.608e+00
8.613e-02,1.748e+00
8.795e-02,1.897e+00
8.976e-02,2.056e+00
9.157e-02,2.224e+00
9.339e-02,2.403e+00
9.520e-02,2.591e+00
9.701e-02,2.791e+00
9.883e-02,3.001e+00
1.006e-01,3.221e+00
1.025e-01,3.453e+00
1.043e-01,3.696e+00
1.061e-01,3.950e+00
1.079e-01,4.214e+00
1.097e-01,4.488e+00
1.115e-01,4.772e+00
1.133e-01,5.065e+00
1.151e-01,5.366e+00
1.170e-01,5.674e+00
1.188e-01,5.988e+00
1.206e-01,6.306e+00
1.224e-01,6.627e+00
1.242e-01,6.950e+00
1.260e-01,7.272e+00
1.278e-01,7.591e+00
1.297e-01,7.906e+00
1.315e-01,8.214e+00
1.333e-01,8.512e+00
1.351e-01,8.799e+00
1.369e-01,9.073e+00
1.387e-01,9.330e+00
1.405e-01,9.570e+00
1.423e-01,9.790e+00
1.442e-01,9.988e+00
1.460e-01,1.016e+01
1.478e-01,1.031e+01
1.496e-01,1.044e+01
1.514e-01,1.054e+01
1.532e-01,1.061e+01
1.550e-01,1.065e+01
1.569e-01,1.066e+01
1.587e-01,1.065e+01
1.605e-01,1.061e+01
1.623e-01,1.054e+01
1.641e-01,1.044e+01
1.659e-01,1.032e+01
1.677e-01,1.018e+01
1.695e-01,1.001e+01
1.714e-01,9.820e+00
1.732e-01,9.613e+00
1.750e-01,9.387e+00
1.768e-01,9.146e+00
1.786e-01,8.891e+00
1.804e-01,8.624e+00
1.822e-01,8.346e+00
1.841e-01,8.060e+00
1.859e-01,7.767e+00
1.877e-01,7.470e+00
1.895e-01,7.169e+00
1.913e-01,6.867e+00
1.931e-01,6.564e+00
1.949e-01,6.263e+00
1.967e-01,5.965e+00
1.986e-01,5.671e+00
2.004e-01,5.381e+00
2.022e-01,5.097e+00
2.040e-01,4.820e+00
2.058e-01,4.550e+00
2.076e-01,4.289e+00
2.094e-01,4.036e+00
2.113e-01,3.792e+00
2.131e-01,3.557e+00
2.149e-01,3.331e+00
2.167e-01,3.116e+00
2.185e-01,2.910e+00
2.203e-01,2.714e+00
2.221e-01,2.528e+00
2.239e-01,2.351e+00
2.258e-01,2.184e+00
2.276e-01,2.026e+00
2.294e-01,1.877e+00
2.312e-01,1.737e+00
2.330e-01,1.606e+00
2.348e-01,1.482e+00
2.366e-01,1.367e+00
2.385e-01,1.259e+00
2.403e-01,1.159e+00
2.421e-01,1.065e+00
2.439e-01,9.779e-01
2.457e-01,8.970e-01
2.475e-01,8.220e-01
2.493e-01,7.525e-01
2.511e-01,6.883e-01
2.530e-01,6.289e-01
2.548e-01,5.742e-01
2.566e-01,5.237e-01
2.584e-01,4.773e-01
2.602e-01,4.346e-01
2.620e-01,3.954e-01
2.638e-01,3.595e-01
2.657e-01,3.266e-01
2.675e-01,2.964e-01
2.693e-01,2.689e-01
2.711e-01,2.437e-01
2.729e-01,2.207e-01
2.747e-01,1.998e-01
2.765e-01,1.807e-01
2.783e-01,1.633e-01
2.802e-01,1.475e-01
2.820e-01,1.332e-01
2.838e-01,1.201e-01
2.856e-01,1.083e-01
2.874e-01,9.761e-02
2.892e-01,8.790e-02
2.910e-01,7.912e-02
2.929e-01,7.117e-02
2.947e-01,6.399e-02
2.965e-01,5.750e-02
2.983e-01,5.164e-02
3.001e-01,4.636e-02
3.019e-01,4.160e-02
3.037e-01,3.731e-02
3.055e-01,3.344e-02
3.074e-01,2.997e-02
3.092e-01,2.684e-02
3.110e-01,2.403e-02
3.128e-01,2.150e-02
3.146e-01,1.923e-02
3.164e-01,1.720e-02
3.182e-01,1.537e-02
3.201e-01,1.373e-02
3.219e-01,1.227e-02
3.237e-01,1.095e-02
3.255e-01,9.774e-03
3.273e-01,8.720e-03
3.291e-01,7.777e-03
3.309e-01,6.934e-03
3.327e-01,6.180e-03
3.346e-01,5.507e-03
3.364e-01,4.905e-03
3.382e-01,4.368e-03
3.400e-01,3.889e-03
3.418e-01,3.461e-03
3.436e-01,3.079e-03
3.454e-01,2.739e-03
3.473e-01,2.436e-03
3.491e-01,2.166e-03
3.509e-01,1.925e-03
3.527e-01,1.711e-03
3.545e-01,1.520e-03
3.563e-01,1.350e-03
3.581e-01,1.199e-03
3.599e-01,1.064e-03
3.618e-01,9.448e-04
