transmittance,probability_density
2.419e-04,3.162e-51
7.258e-04,4.262e-28
1.210e-03,8.523e-20
1.693e-03,3.566e-15
2.177e-03,3.707e-12
2.661e-03,5.168e-10
3.145e-03,2.095e-08
3.629e-03,3.738e-07
4.113e-03,3.749e-06
4.596e-03,2.470e-05
5.080e-03,1.188e-04
5.564e-03,4.488e-04
6.048e-03,1.405e-03
6.532e-03,3.795e-03
7.016e-03,9.106e-03
7.499e-03,1.986e-02
7.983e-03,4.005e-02
8.467e-03,7.567e-02
8.951e-03,1.352e-01
9.435e-03,2.302e-01
9.919e-03,3.754e-01
1.040e-02,5.891e-01
1.089e-02,8.926e-01
1.137e-02,1.310e+00
1.185e-02,1.866e+00
1.234e-02,2.585e+00
1.282e-02,3.492e+00
1.331e-02,4.606e+00
1.379e-02,5.943e+00
1.427e-02,7.512e+00
1.476e-02,9.315e+00
1.524e-02,1.135e+01
1.572e-02,1.359e+01
1.621e-02,1.603e+01
1.669e-02,1.864e+01
1.718e-02,2.138e+01
1.766e-02,2.421e+01
1.814e-02,2.709e+01
1.863e-02,2.999e+01
1.911e-02,3.285e+01
1.960e-02,3.564e+01
2.008e-02,3.832e+01
2.056e-02,4.084e+01
2.105e-02,4.318e+01
2.153e-02,4.532e+01
2.201e-02,4.722e+01
2.250e-02,4.887e+01
2.298e-02,5.026e+01
2.347e-02,5.139e+01
2.395e-02,5.225e+01
2.443e-02,5.284e+01
2.492e-02,5.317e+01
2.540e-02,5.325e+01
2.589e-02,5.309e+01
2.637e-02,5.271e+01
2.685e-02,5.213e+01
2.734e-02,5.135e+01
2.782e-02,5.040e+01
2.830e-02,4.930e+01
2.879e-02,4.807e+01
2.927e-02,4.672e+01
2.976e-02,4.528e+01
3.024e-02,4.377e+01
3.072e-02,4.219e+01
3.121e-02,4.056e+01
3.169e-02,3.891e+01
3.218e-02,3.724e+01
3.266e-02,3.556e+01
3.314e-02,3.388e+01
3.363e-02,3.223e+01
3.411e-02,3.059e+01
3.459e-02,2.899e+01
3.508e-02,2.742e+01
3.556e-02,2.590e+01
3.605e-02,2.442e+01
3.653e-02,2.300e+01
3.701e-02,2.162e+01
3.750e-02,2.030e+01
3.798e-02,1.904e+01
3.846e-02,1.783e+01
3.895e-02,1.668e+01
3.943e-02,1.559e+01
3.992e-02,1.455e+01
4.040e-02,1.357e+01
4.088e-02,1.264e+01
4.137e-02,1.177e+01
4.185e-02,1.094e+01
4.234e-02,1.017e+01
4.282e-02,9.438e+00
4.330e-02,8.755e+00
4.379e-02,8.115e+00
4.427e-02,7.517e+00
4.475e-02,6.958e+00
4.524e-02,6.436e+00
4.572e-02,5.950e+00
4.621e-02,5.497e+00
4.669e-02,5.076e+00
4.717e-02,4.685e+00
4.766e-02,4.321e+00
4.814e-02,3.984e+00
4.863e-02,3.672e+00
4.911e-02,3.382e+00
4.959e-02,3.114e+00
5.008e-02,2.866e+00
5.056e-02,2.637e+00
5.104e-02,2.425e+00
5.153e-02,2.229e+00
5.201e-02,2.049e+00
5.250e-02,1.882e+00
5.298e-02,1.729e+00
5.346e-02,1.587e+00
5.395e-02,1.457e+00
5.443e-02,1.337e+00
5.492e-02,1.227e+00
5.540e-02,1.125e+00
5.588e-02,1.032e+00
5.637e-02,9.462e-01
5.685e-02,8.674e-01
5.733e-02,7.950e-01
5.782e-02,7.285e-01
5.830e-02,6.675e-01
5.879e-02,6.114e-01
5.927e-02,5.600e-01
5.975e-02,5.129e-01
6.024e-02,4.697e-01
6.072e-02,4.300e-01
6.121e-02,3.937e-01
6.169e-02,3.604e-01
6.217e-02,3.299e-01
6.266e-02,3.019e-01
6.314e-02,2.763e-01
6.362e-02,2.528e-01
6.411e-02,2.313e-01
6.459e-02,2.117e-01
6.508e-02,1.937e-01
6.556e-02,1.772e-01
6.604e-02,1.621e-01
6.653e-02,1.483e-01
6.701e-02,1.357e-01
6.749e-02,1.241e-01
6.798e-02,1.135e-01
6.846e-02,1.038e-01
6.895e-02,9.498e-02
6.943e-02,8.688e-02
6.991e-02,7.947e-02
7.040e-02,7.270e-02
7.088e-02,6.650e-02
7.137e-02,6.083e-02
7.185e-02,5.564e-02
7.233e-02,5.090e-02
7.282e-02,4.656e-02
7.330e-02,4.260e-02
7.378e-02,3.897e-02
7.427e-02,3.565e-02
7.475e-02,3.262e-02
7.524e-02,2.984e-02
7.572e-02,2.731e-02
7.620e-02,2.499e-02
7.669e-02,2.286e-02
7.717e-02,2.092e-02
7.766e-02,1.915e-02
7.814e-02,1.752e-02
7.862e-02,1.604e-02
7.911e-02,1.468e-02
7.959e-02,1.344e-02
8.007e-02,1.230e-02
8.056e-02,1.126e-02
8.104e-02,1.031e-02
8.153e-02,9.440e-03
8.201e-02,8.644e-03
8.249e-02,7.915e-03
8.298e-02,7.249e-03
8.346e-02,6.639e-03
8.395e-02,6.081e-03
8.443e-02,5.570e-03
8.491e-02,5.103e-03
8.540e-02,4.675e-03
8.588e-02,4.283e-03
8.636e-02,3.925e-03
8.685e-02,3.597e-03
8.733e-02,3.296e-03
8.782e-02,3.021e-03
8.830e-02,2.769e-03
8.878e-02,2.539e-03
8.927e-02,2.328e-03
8.975e-02,2.134e-03
9.024e-02,1.957e-03
9.072e-02,1.795e-03
9.120e-02,1.646e-03
9.169e-02,1.510e-03
9.217e-02,1.385e-03
9.265e-02,1.271e-03
9.314e-02,1.166e-03
9.362e-02,1.070e-03
9.411e-02,9.817e-04
9.459e-02,9.010e-04
9.507e-02,8.270e-04
9.556e-02,7.592e-04
9.604e-02,6.970e-04
9.653e-02,6.399e-04
