transmittance,probability_density
3.025e-05,4.338e-41
9.075e-05,9.794e-22
1.512e-04,7.269e-15
2.117e-04,4.522e-11
2.722e-04,1.301e-08
3.327e-04,7.103e-07
3.932e-04,1.405e-05
4.537e-04,1.423e-04
5.142e-04,9.065e-04
5.747e-04,4.135e-03
6.352e-04,1.475e-02
6.957e-04,4.371e-02
7.562e-04,1.123e-01
8.167e-04,2.581e-01
8.772e-04,5.418e-01
9.377e-04,1.056e+00
9.983e-04,1.931e+00
1.059e-03,3.340e+00
1.119e-03,5.502e+00
1.180e-03,8.670e+00
1.240e-03,1.313e+01
1.301e-03,1.916e+01
1.361e-03,2.704e+01
1.422e-03,3.702e+01
1.482e-03,4.927e+01
1.543e-03,6.390e+01
1.603e-03,8.092e+01
1.664e-03,1.003e+02
1.724e-03,1.217e+02
1.785e-03,1.451e+02
1.845e-03,1.700e+02
1.906e-03,1.960e+02
1.966e-03,2.226e+02
2.027e-03,2.495e+02
2.087e-03,2.762e+02
2.148e-03,3.021e+02
2.208e-03,3.269e+02
2.269e-03,3.501e+02
2.329e-03,3.715e+02
2.390e-03,3.907e+02
2.450e-03,4.076e+02
2.511e-03,4.219e+02
2.571e-03,4.336e+02
2.632e-03,4.427e+02
2.692e-03,4.491e+02
2.753e-03,4.529e+02
2.813e-03,4.543e+02
2.874e-03,4.533e+02
2.934e-03,4.500e+02
2.995e-03,4.448e+02
3.055e-03,4.377e+02
3.116e-03,4.290e+02
3.176e-03,4.188e+02
3.237e-03,4.074e+02
3.297e-03,3.949e+02
3.358e-03,3.816e+02
3.418e-03,3.677e+02
3.479e-03,3.532e+02
3.539e-03,3.383e+02
3.600e-03,3.233e+02
3.660e-03,3.081e+02
3.721e-03,2.930e+02
3.781e-03,2.780e+02
3.842e-03,2.633e+02
3.902e-03,2.488e+02
3.963e-03,2.347e+02
4.023e-03,2.210e+02
4.084e-03,2.078e+02
4.144e-03,1.950e+02
4.205e-03,1.827e+02
4.265e-03,1.710e+02
4.326e-03,1.598e+02
4.386e-03,1.491e+02
4.447e-03,1.390e+02
4.507e-03,1.294e+02
4.568e-03,1.204e+02
4.628e-03,1.118e+02
4.689e-03,1.038e+02
4.749e-03,9.626e+01
4.810e-03,8.917e+01
4.870e-03,8.254e+01
4.931e-03,7.634e+01
4.991e-03,7.055e+01
5.052e-03,6.515e+01
5.112e-03,6.012e+01
5.173e-03,5.544e+01
5.233e-03,5.110e+01
5.294e-03,4.706e+01
5.354e-03,4.332e+01
5.415e-03,3.986e+01
5.475e-03,3.666e+01
5.536e-03,3.369e+01
5.596e-03,3.095e+01
5.657e-03,2.843e+01
5.717e-03,2.609e+01
5.778e-03,2.394e+01
5.838e-03,2.196e+01
5.899e-03,2.014e+01
5.959e-03,1.846e+01
6.020e-03,1.691e+01
6.080e-03,1.550e+01
6.141e-03,1.419e+01
6.201e-03,1.299e+01
6.262e-03,1.189e+01
6.322e-03,1.089e+01
6.383e-03,9.960e+00
6.443e-03,9.112e+00
6.504e-03,8.334e+00
6.564e-03,7.621e+00
6.625e-03,6.968e+00
6.685e-03,6.370e+00
6.746e-03,5.823e+00
6.806e-03,5.322e+00
6.867e-03,4.863e+00
6.927e-03,4.444e+00
6.988e-03,4.060e+00
7.048e-03,3.709e+00
7.109e-03,3.389e+00
7.169e-03,3.095e+00
7.230e-03,2.827e+00
7.290e-03,2.582e+00
7.351e-03,2.358e+00
7.411e-03,2.154e+00
7.472e-03,1.967e+00
7.532e-03,1.796e+00
7.593e-03,1.640e+00
7.653e-03,1.498e+00
7.714e-03,1.368e+00
7.774e-03,1.249e+00
7.835e-03,1.141e+00
7.895e-03,1.042e+00
7.956e-03,9.513e-01
8.016e-03,8.687e-01
8.077e-03,7.933e-01
8.137e-03,7.245e-01
8.198e-03,6.617e-01
8.258e-03,6.044e-01
8.319e-03,5.520e-01
8.379e-03,5.042e-01
8.440e-03,4.606e-01
8.500e-03,4.207e-01
8.561e-03,3.844e-01
8.621e-03,3.512e-01
8.682e-03,3.208e-01
8.742e-03,2.932e-01
8.803e-03,2.679e-01
8.863e-03,2.448e-01
8.924e-03,2.237e-01
8.984e-03,2.045e-01
9.045e-03,1.869e-01
9.105e-03,1.709e-01
9.166e-03,1.562e-01
9.226e-03,1.428e-01
9.287e-03,1.306e-01
9.347e-03,1.194e-01
9.408e-03,1.092e-01
9.468e-03,9.989e-02
9.529e-03,9.137e-02
9.589e-03,8.359e-02
9.650e-03,7.647e-02
9.710e-03,6.997e-02
9.771e-03,6.403e-02
9.831e-03,5.860e-02
9.892e-03,5.363e-02
9.952e-03,4.909e-02
1.001e-02,4.494e-02
1.007e-02,4.115e-02
1.013e-02,3.768e-02
1.019e-02,3.450e-02
1.025e-02,3.160e-02
1.032e-02,2.895e-02
1.038e-02,2.652e-02
1.044e-02,2.429e-02
1.050e-02,2.226e-02
1.056e-02,2.040e-02
1.062e-02,1.870e-02
1.068e-02,1.714e-02
1.074e-02,1.571e-02
1.080e-02,1.440e-02
1.086e-02,1.321e-02
1.092e-02,1.211e-02
1.098e-02,1.111e-02
1.104e-02,1.019e-02
1.110e-02,9.349e-03
1.116e-02,8.578e-03
1.122e-02,7.871e-03
1.128e-02,7.224e-03
1.134e-02,6.630e-03
1.140e-02,6.087e-03
1.146e-02,5.588e-03
1.153e-02,5.131e-03
1.159e-02,4.712e-03
1.165e-02,4.328e-03
1.171e-02,3.975e-03
1.177e-02,3.652e-03
1.183e-02,3.355e-03
1.189e-02,3.083e-03
1.195e-02,2.834e-03
1.201e-02,2.605e-03
1.207e-02,2.394e-03
