transmittance,probability_density
1.103e-04,5.146e-47
3.308e-04,1.482e-25
5.514e-04,7.127e-18
7.719e-04,1.324e-13
9.925e-04,8.023e-11
1.213e-03,7.578e-09
1.434e-03,2.288e-07
1.654e-03,3.242e-06
1.875e-03,2.705e-05
2.095e-03,1.536e-04
2.316e-03,6.547e-04
2.536e-03,2.241e-03
2.757e-03,6.472e-03
2.977e-03,1.636e-02
3.198e-03,3.716e-02
3.419e-03,7.745e-02
3.639e-03,1.503e-01
3.860e-03,2.744e-01
4.080e-03,4.758e-01
4.301e-03,7.878e-01
4.521e-03,1.252e+00
4.742e-03,1.917e+00
4.962e-03,2.836e+00
5.183e-03,4.068e+00
5.403e-03,5.669e+00
5.624e-03,7.691e+00
5.845e-03,1.018e+01
6.065e-03,1.317e+01
6.286e-03,1.667e+01
6.506e-03,2.070e+01
6.727e-03,2.524e+01
6.947e-03,3.024e+01
7.168e-03,3.567e+01
7.388e-03,4.146e+01
7.609e-03,4.753e+01
7.830e-03,5.379e+01
8.050e-03,6.015e+01
8.271e-03,6.652e+01
8.491e-03,7.279e+01
8.712e-03,7.889e+01
8.932e-03,8.471e+01
9.153e-03,9.019e+01
9.373e-03,9.526e+01
9.594e-03,9.985e+01
9.814e-03,1.039e+02
1.004e-02,1.074e+02
1.026e-02,1.104e+02
1.048e-02,1.128e+02
1.070e-02,1.145e+02
1.092e-02,1.157e+02
1.114e-02,1.163e+02
1.136e-02,1.164e+02
1.158e-02,1.160e+02
1.180e-02,1.151e+02
1.202e-02,1.137e+02
1.224e-02,1.120e+02
1.246e-02,1.098e+02
1.268e-02,1.074e+02
1.290e-02,1.047e+02
1.312e-02,1.017e+02
1.334e-02,9.854e+01
1.356e-02,9.522e+01
1.378e-02,9.178e+01
1.400e-02,8.824e+01
1.423e-02,8.463e+01
1.445e-02,8.100e+01
1.467e-02,7.736e+01
1.489e-02,7.373e+01
1.511e-02,7.014e+01
1.533e-02,6.660e+01
1.555e-02,6.314e+01
1.577e-02,5.975e+01
1.599e-02,5.645e+01
1.621e-02,5.326e+01
1.643e-02,5.018e+01
1.665e-02,4.721e+01
1.687e-02,4.436e+01
1.709e-02,4.163e+01
1.731e-02,3.902e+01
1.753e-02,3.653e+01
1.775e-02,3.416e+01
1.797e-02,3.192e+01
1.820e-02,2.979e+01
1.842e-02,2.778e+01
1.864e-02,2.588e+01
1.886e-02,2.409e+01
1.908e-02,2.241e+01
1.930e-02,2.083e+01
1.952e-02,1.934e+01
1.974e-02,1.795e+01
1.996e-02,1.665e+01
2.018e-02,1.543e+01
2.040e-02,1.429e+01
2.062e-02,1.323e+01
2.084e-02,1.224e+01
2.106e-02,1.132e+01
2.128e-02,1.046e+01
2.150e-02,9.662e+00
2.172e-02,8.922e+00
2.194e-02,8.234e+00
2.217e-02,7.596e+00
2.239e-02,7.005e+00
2.261e-02,6.458e+00
2.283e-02,5.951e+00
2.305e-02,5.482e+00
2.327e-02,5.048e+00
2.349e-02,4.647e+00
2.371e-02,4.277e+00
2.393e-02,3.935e+00
2.415e-02,3.620e+00
2.437e-02,3.329e+00
2.459e-02,3.060e+00
2.481e-02,2.813e+00
2.503e-02,2.585e+00
2.525e-02,2.375e+00
2.547e-02,2.182e+00
2.569e-02,2.004e+00
2.591e-02,1.840e+00
2.614e-02,1.689e+00
2.636e-02,1.551e+00
2.658e-02,1.424e+00
2.680e-02,1.307e+00
2.702e-02,1.199e+00
2.724e-02,1.100e+00
2.746e-02,1.009e+00
2.768e-02,9.260e-01
2.790e-02,8.494e-01
2.812e-02,7.791e-01
2.834e-02,7.146e-01
2.856e-02,6.554e-01
2.878e-02,6.010e-01
2.900e-02,5.511e-01
2.922e-02,5.054e-01
2.944e-02,4.634e-01
2.966e-02,4.249e-01
2.988e-02,3.896e-01
3.011e-02,3.572e-01
3.033e-02,3.275e-01
3.055e-02,3.002e-01
3.077e-02,2.753e-01
3.099e-02,2.524e-01
3.121e-02,2.314e-01
3.143e-02,2.121e-01
3.165e-02,1.945e-01
3.187e-02,1.783e-01
3.209e-02,1.635e-01
3.231e-02,1.499e-01
3.253e-02,1.374e-01
3.275e-02,1.260e-01
3.297e-02,1.155e-01
3.319e-02,1.059e-01
3.341e-02,9.715e-02
3.363e-02,8.909e-02
3.385e-02,8.170e-02
3.407e-02,7.493e-02
3.430e-02,6.872e-02
3.452e-02,6.303e-02
3.474e-02,5.782e-02
3.496e-02,5.304e-02
3.518e-02,4.865e-02
3.540e-02,4.464e-02
3.562e-02,4.095e-02
3.584e-02,3.757e-02
3.606e-02,3.448e-02
3.628e-02,3.164e-02
3.650e-02,2.904e-02
3.672e-02,2.665e-02
3.694e-02,2.446e-02
3.716e-02,2.245e-02
3.738e-02,2.061e-02
3.760e-02,1.892e-02
3.782e-02,1.737e-02
3.804e-02,1.595e-02
3.827e-02,1.465e-02
3.849e-02,1.345e-02
3.871e-02,1.236e-02
3.893e-02,1.135e-02
3.915e-02,1.043e-02
3.937e-02,9.578e-03
3.959e-02,8.800e-03
3.981e-02,8.086e-03
4.003e-02,7.431e-03
4.025e-02,6.829e-03
4.047e-02,6.277e-03
4.069e-02,5.770e-03
4.091e-02,5.304e-03
4.113e-02,4.877e-03
4.135e-02,4.484e-03
4.157e-02,4.123e-03
4.179e-02,3.792e-03
4.201e-02,3.488e-03
4.224e-02,3.208e-03
4.246e-02,2.951e-03
4.268e-02,2.715e-03
4.290e-02,2.499e-03
4.312e-02,2.299e-03
4.334e-02,2.116e-03
4.356e-02,1.948e-03
4.378e-02,1.793e-03
4.400e-02,1.651e-03
