transmittance,probability_density
1.465e-03,1.141e-118
4.394e-03,1.121e-68
7.323e-03,3.417e-50
1.025e-02,1.143e-39
1.318e-02,1.159e-32
1.611e-02,1.360e-27
1.904e-02,9.978e-24
2.197e-02,1.133e-20
2.490e-02,3.417e-18
2.783e-02,3.855e-16
3.076e-02,2.051e-14
3.369e-02,6.054e-13
3.662e-02,1.115e-11
3.955e-02,1.397e-10
4.247e-02,1.275e-09
4.540e-02,8.930e-09
4.833e-02,4.998e-08
5.126e-02,2.312e-07
5.419e-02,9.082e-07
5.712e-02,3.098e-06
6.005e-02,9.351e-06
6.298e-02,2.538e-05
6.591e-02,6.276e-05
6.884e-02,1.431e-04
7.177e-02,3.039e-04
7.470e-02,6.063e-04
7.763e-02,1.145e-03
8.056e-02,2.062e-03
8.349e-02,3.559e-03
8.641e-02,5.918e-03
8.934e-02,9.520e-03
9.227e-02,1.487e-02
9.520e-02,2.262e-02
9.813e-02,3.360e-02
1.011e-01,4.882e-02
1.040e-01,6.951e-02
1.069e-01,9.712e-02
1.098e-01,1.333e-01
1.128e-01,1.799e-01
1.157e-01,2.390e-01
1.186e-01,3.126e-01
1.216e-01,4.030e-01
1.245e-01,5.123e-01
1.274e-01,6.423e-01
1.304e-01,7.951e-01
1.333e-01,9.719e-01
1.362e-01,1.174e+00
1.391e-01,1.402e+00
1.421e-01,1.655e+00
1.450e-01,1.934e+00
1.479e-01,2.237e+00
1.509e-01,2.561e+00
1.538e-01,2.906e+00
1.567e-01,3.268e+00
1.596e-01,3.643e+00
1.626e-01,4.028e+00
1.655e-01,4.418e+00
1.684e-01,4.810e+00
1.714e-01,5.198e+00
1.743e-01,5.579e+00
1.772e-01,5.948e+00
1.802e-01,6.301e+00
1.831e-01,6.634e+00
1.860e-01,6.943e+00
1.889e-01,7.226e+00
1.919e-01,7.480e+00
1.948e-01,7.703e+00
1.977e-01,7.893e+00
2.007e-01,8.048e+00
2.036e-01,8.169e+00
2.065e-01,8.255e+00
2.094e-01,8.307e+00
2.124e-01,8.325e+00
2.153e-01,8.310e+00
2.182e-01,8.264e+00
2.212e-01,8.188e+00
2.241e-01,8.085e+00
2.270e-01,7.956e+00
2.300e-01,7.804e+00
2.329e-01,7.631e+00
2.358e-01,7.439e+00
2.387e-01,7.231e+00
2.417e-01,7.009e+00
2.446e-01,6.776e+00
2.475e-01,6.534e+00
2.505e-01,6.285e+00
2.534e-01,6.030e+00
2.563e-01,5.772e+00
2.592e-01,5.513e+00
2.622e-01,5.255e+00
2.651e-01,4.998e+00
2.680e-01,4.744e+00
2.710e-01,4.494e+00
2.739e-01,4.249e+00
2.768e-01,4.010e+00
2.797e-01,3.778e+00
2.827e-01,3.554e+00
2.856e-01,3.337e+00
2.885e-01,3.128e+00
2.915e-01,2.929e+00
2.944e-01,2.737e+00
2.973e-01,2.555e+00
3.003e-01,2.382e+00
3.032e-01,2.217e+00
3.061e-01,2.061e+00
3.090e-01,1.914e+00
3.120e-01,1.775e+00
3.149e-01,1.644e+00
3.178e-01,1.521e+00
3.208e-01,1.406e+00
3.237e-01,1.298e+00
3.266e-01,1.197e+00
3.295e-01,1.103e+00
3.325e-01,1.015e+00
3.354e-01,9.335e-01
3.383e-01,8.578e-01
3.413e-01,7.875e-01
3.442e-01,7.223e-01
3.471e-01,6.620e-01
3.501e-01,6.062e-01
3.530e-01,5.548e-01
3.559e-01,5.073e-01
3.588e-01,4.635e-01
3.618e-01,4.233e-01
3.647e-01,3.862e-01
3.676e-01,3.522e-01
3.706e-01,3.210e-01
3.735e-01,2.924e-01
3.764e-01,2.661e-01
3.793e-01,2.421e-01
3.823e-01,2.201e-01
3.852e-01,2.001e-01
3.881e-01,1.817e-01
3.911e-01,1.650e-01
3.940e-01,1.497e-01
3.969e-01,1.358e-01
3.998e-01,1.231e-01
4.028e-01,1.115e-01
4.057e-01,1.010e-01
4.086e-01,9.147e-02
4.116e-01,8.279e-02
4.145e-01,7.490e-02
4.174e-01,6.774e-02
4.204e-01,6.125e-02
4.233e-01,5.535e-02
4.262e-01,5.001e-02
4.291e-01,4.517e-02
4.321e-01,4.078e-02
4.350e-01,3.681e-02
4.379e-01,3.322e-02
4.409e-01,2.996e-02
4.438e-01,2.702e-02
4.467e-01,2.437e-02
4.496e-01,2.196e-02
4.526e-01,1.979e-02
4.555e-01,1.783e-02
4.584e-01,1.607e-02
4.614e-01,1.447e-02
4.643e-01,1.303e-02
4.672e-01,1.173e-02
4.702e-01,1.056e-02
4.731e-01,9.499e-03
4.760e-01,8.547e-03
4.789e-01,7.689e-03
4.819e-01,6.916e-03
4.848e-01,6.219e-03
4.877e-01,5.592e-03
4.907e-01,5.028e-03
4.936e-01,4.520e-03
4.965e-01,4.062e-03
4.994e-01,3.651e-03
5.024e-01,3.280e-03
5.053e-01,2.947e-03
5.082e-01,2.648e-03
5.112e-01,2.379e-03
5.141e-01,2.137e-03
5.170e-01,1.919e-03
5.200e-01,1.723e-03
5.229e-01,1.548e-03
5.258e-01,1.390e-03
5.287e-01,1.248e-03
5.317e-01,1.120e-03
5.346e-01,1.006e-03
5.375e-01,9.026e-04
5.405e-01,8.102e-04
5.434e-01,7.273e-04
5.463e-01,6.527e-04
5.492e-01,5.858e-04
5.522e-01,5.258e-04
5.551e-01,4.718e-04
5.580e-01,4.234e-04
5.610e-01,3.800e-04
5.639e-01,3.410e-04
5.668e-01,3.060e-04
5.697e-01,2.745e-04
5.727e-01,2.463e-04
5.756e-01,2.210e-04
5.785e-01,1.983e-04
5.815e-01,1.780e-04
5.844e-01,1.597e-04
