transmittance,probability_density
1.782e-01,1.074e-16
1.824e-01,5.937e-16
1.865e-01,3.021e-15
1.906e-01,1.422e-14
1.947e-01,6.215e-14
1.988e-01,2.534e-13
2.030e-01,9.668e-13
2.071e-01,3.465e-12
2.112e-01,1.170e-11
2.153e-01,3.736e-11
2.194e-01,1.130e-10
2.236e-01,3.251e-10
2.277e-01,8.905e-10
2.318e-01,2.330e-09
2.359e-01,5.832e-09
2.400e-01,1.400e-08
2.441e-01,3.230e-08
2.483e-01,7.175e-08
2.524e-01,1.537e-07
2.565e-01,3.179e-07
2.606e-01,6.363e-07
2.647e-01,1.234e-06
2.689e-01,2.322e-06
2.730e-01,4.246e-06
2.771e-01,7.554e-06
2.812e-01,1.309e-05
2.853e-01,2.213e-05
2.895e-01,3.652e-05
2.936e-01,5.893e-05
2.977e-01,9.305e-05
3.018e-01,1.439e-04
3.059e-01,2.183e-04
3.101e-01,3.251e-04
3.142e-01,4.756e-04
3.183e-01,6.844e-04
3.224e-01,9.694e-04
3.265e-01,1.353e-03
3.306e-01,1.862e-03
3.348e-01,2.529e-03
3.389e-01,3.394e-03
3.430e-01,4.502e-03
3.471e-01,5.909e-03
3.512e-01,7.678e-03
3.554e-01,9.886e-03
3.595e-01,1.262e-02
3.636e-01,1.598e-02
3.677e-01,2.010e-02
3.718e-01,2.510e-02
3.760e-01,3.115e-02
3.801e-01,3.843e-02
3.842e-01,4.715e-02
3.883e-01,5.757e-02
3.924e-01,6.994e-02
3.966e-01,8.459e-02
4.007e-01,1.018e-01
4.048e-01,1.221e-01
4.089e-01,1.458e-01
4.130e-01,1.734e-01
4.171e-01,2.053e-01
4.213e-01,2.422e-01
4.254e-01,2.845e-01
4.295e-01,3.328e-01
4.336e-01,3.878e-01
4.377e-01,4.500e-01
4.419e-01,5.200e-01
4.460e-01,5.984e-01
4.501e-01,6.856e-01
4.542e-01,7.821e-01
4.583e-01,8.884e-01
4.625e-01,1.005e+00
4.666e-01,1.131e+00
4.707e-01,1.268e+00
4.748e-01,1.416e+00
4.789e-01,1.573e+00
4.831e-01,1.740e+00
4.872e-01,1.916e+00
4.913e-01,2.101e+00
4.954e-01,2.293e+00
4.995e-01,2.493e+00
5.036e-01,2.697e+00
5.078e-01,2.906e+00
5.119e-01,3.117e+00
5.160e-01,3.330e+00
5.201e-01,3.542e+00
5.242e-01,3.752e+00
5.284e-01,3.958e+00
5.325e-01,4.158e+00
5.366e-01,4.350e+00
5.407e-01,4.533e+00
5.448e-01,4.705e+00
5.490e-01,4.865e+00
5.531e-01,5.011e+00
5.572e-01,5.141e+00
5.613e-01,5.256e+00
5.654e-01,5.352e+00
5.696e-01,5.431e+00
5.737e-01,5.492e+00
5.778e-01,5.533e+00
5.819e-01,5.556e+00
5.860e-01,5.559e+00
5.902e-01,5.544e+00
5.943e-01,5.510e+00
5.984e-01,5.459e+00
6.025e-01,5.391e+00
6.066e-01,5.307e+00
6.107e-01,5.208e+00
6.149e-01,5.096e+00
6.190e-01,4.971e+00
6.231e-01,4.834e+00
6.272e-01,4.688e+00
6.313e-01,4.533e+00
6.355e-01,4.372e+00
6.396e-01,4.204e+00
6.437e-01,4.032e+00
6.478e-01,3.856e+00
6.519e-01,3.679e+00
6.561e-01,3.500e+00
6.602e-01,3.322e+00
6.643e-01,3.145e+00
6.684e-01,2.970e+00
6.725e-01,2.799e+00
6.767e-01,2.631e+00
6.808e-01,2.467e+00
6.849e-01,2.308e+00
6.890e-01,2.155e+00
6.931e-01,2.007e+00
6.972e-01,1.865e+00
7.014e-01,1.730e+00
7.055e-01,1.601e+00
7.096e-01,1.479e+00
7.137e-01,1.363e+00
7.178e-01,1.254e+00
7.220e-01,1.152e+00
7.261e-01,1.055e+00
7.302e-01,9.651e-01
7.343e-01,8.811e-01
7.384e-01,8.030e-01
7.426e-01,7.304e-01
7.467e-01,6.633e-01
7.508e-01,6.012e-01
7.549e-01,5.441e-01
7.590e-01,4.915e-01
7.632e-01,4.433e-01
7.673e-01,3.992e-01
7.714e-01,3.589e-01
7.755e-01,3.221e-01
7.796e-01,2.887e-01
7.837e-01,2.584e-01
7.879e-01,2.309e-01
7.920e-01,2.060e-01
7.961e-01,1.835e-01
8.002e-01,1.633e-01
8.043e-01,1.451e-01
8.085e-01,1.287e-01
8.126e-01,1.141e-01
8.167e-01,1.009e-01
8.208e-01,8.920e-02
8.249e-01,7.872e-02
8.291e-01,6.940e-02
8.332e-01,6.110e-02
8.373e-01,5.372e-02
8.414e-01,4.719e-02
8.455e-01,4.139e-02
8.497e-01,3.627e-02
8.538e-01,3.175e-02
8.579e-01,2.775e-02
8.620e-01,2.424e-02
8.661e-01,2.114e-02
8.702e-01,1.842e-02
8.744e-01,1.604e-02
8.785e-01,1.395e-02
8.826e-01,1.212e-02
8.867e-01,1.052e-02
8.908e-01,9.117e-03
8.950e-01,7.897e-03
8.991e-01,6.834e-03
9.032e-01,5.908e-03
9.073e-01,5.103e-03
9.114e-01,4.404e-03
9.156e-01,3.797e-03
9.197e-01,3.271e-03
9.238e-01,2.815e-03
9.279e-01,2.421e-03
9.320e-01,2.080e-03
9.362e-01,1.786e-03
9.403e-01,1.532e-03
9.444e-01,1.313e-03
9.485e-01,1.125e-03
9.526e-01,9.627e-04
9.567e-01,8.234e-04
9.609e-01,7.036e-04
9.650e-01,6.009e-04
9.691e-01,5.127e-04
9.732e-01,4.372e-04
9.773e-01,3.726e-04
9.815e-01,3.173e-04
9.856e-01,2.700e-04
9.897e-01,2.296e-04
9.938e-01,1.951e-04
9.979e-01,1.657e-04
