transmittance,probability_density
2.088e-01,1.872e-16
2.128e-01,8.417e-16
2.167e-01,3.554e-15
2.207e-01,1.413e-14
2.247e-01,5.307e-14
2.286e-01,1.887e-13
2.326e-01,6.369e-13
2.366e-01,2.045e-12
2.405e-01,6.262e-12
2.445e-01,1.832e-11
2.485e-01,5.130e-11
2.524e-01,1.378e-10
2.564e-01,3.555e-10
2.604e-01,8.827e-10
2.643e-01,2.113e-09
2.683e-01,4.881e-09
2.723e-01,1.090e-08
2.762e-01,2.357e-08
2.802e-01,4.938e-08
2.842e-01,1.004e-07
2.881e-01,1.984e-07
2.921e-01,3.812e-07
2.961e-01,7.134e-07
3.000e-01,1.301e-06
3.040e-01,2.316e-06
3.079e-01,4.026e-06
3.119e-01,6.842e-06
3.159e-01,1.138e-05
3.198e-01,1.852e-05
3.238e-01,2.957e-05
3.278e-01,4.629e-05
3.317e-01,7.116e-05
3.357e-01,1.075e-04
3.397e-01,1.596e-04
3.436e-01,2.332e-04
3.476e-01,3.355e-04
3.516e-01,4.756e-04
3.555e-01,6.650e-04
3.595e-01,9.174e-04
3.635e-01,1.250e-03
3.674e-01,1.682e-03
3.714e-01,2.239e-03
3.754e-01,2.948e-03
3.793e-01,3.843e-03
3.833e-01,4.962e-03
3.873e-01,6.352e-03
3.912e-01,8.063e-03
3.952e-01,1.016e-02
3.992e-01,1.270e-02
4.031e-01,1.578e-02
4.071e-01,1.949e-02
4.111e-01,2.393e-02
4.150e-01,2.923e-02
4.190e-01,3.552e-02
4.230e-01,4.297e-02
4.269e-01,5.176e-02
4.309e-01,6.210e-02
4.349e-01,7.422e-02
4.388e-01,8.838e-02
4.428e-01,1.049e-01
4.468e-01,1.241e-01
4.507e-01,1.462e-01
4.547e-01,1.719e-01
4.587e-01,2.013e-01
4.626e-01,2.350e-01
4.666e-01,2.735e-01
4.706e-01,3.173e-01
4.745e-01,3.669e-01
4.785e-01,4.228e-01
4.824e-01,4.856e-01
4.864e-01,5.558e-01
4.904e-01,6.339e-01
4.943e-01,7.205e-01
4.983e-01,8.158e-01
5.023e-01,9.204e-01
5.062e-01,1.034e+00
5.102e-01,1.158e+00
5.142e-01,1.292e+00
5.181e-01,1.436e+00
5.221e-01,1.589e+00
5.261e-01,1.752e+00
5.300e-01,1.924e+00
5.340e-01,2.104e+00
5.380e-01,2.292e+00
5.419e-01,2.487e+00
5.459e-01,2.688e+00
5.499e-01,2.894e+00
5.538e-01,3.103e+00
5.578e-01,3.314e+00
5.618e-01,3.526e+00
5.657e-01,3.737e+00
5.697e-01,3.945e+00
5.737e-01,4.148e+00
5.776e-01,4.345e+00
5.816e-01,4.534e+00
5.856e-01,4.714e+00
5.895e-01,4.883e+00
5.935e-01,5.039e+00
5.975e-01,5.181e+00
6.014e-01,5.307e+00
6.054e-01,5.418e+00
6.094e-01,5.511e+00
6.133e-01,5.586e+00
6.173e-01,5.643e+00
6.213e-01,5.681e+00
6.252e-01,5.700e+00
6.292e-01,5.700e+00
6.332e-01,5.681e+00
6.371e-01,5.644e+00
6.411e-01,5.589e+00
6.451e-01,5.518e+00
6.490e-01,5.431e+00
6.530e-01,5.328e+00
6.569e-01,5.212e+00
6.609e-01,5.083e+00
6.649e-01,4.943e+00
6.688e-01,4.792e+00
6.728e-01,4.634e+00
6.768e-01,4.467e+00
6.807e-01,4.295e+00
6.847e-01,4.118e+00
6.887e-01,3.938e+00
6.926e-01,3.756e+00
6.966e-01,3.573e+00
7.006e-01,3.390e+00
7.045e-01,3.208e+00
7.085e-01,3.029e+00
7.125e-01,2.852e+00
7.164e-01,2.680e+00
7.204e-01,2.512e+00
7.244e-01,2.348e+00
7.283e-01,2.191e+00
7.323e-01,2.039e+00
7.363e-01,1.894e+00
7.402e-01,1.755e+00
7.442e-01,1.622e+00
7.482e-01,1.497e+00
7.521e-01,1.378e+00
7.561e-01,1.266e+00
7.601e-01,1.161e+00
7.640e-01,1.062e+00
7.680e-01,9.702e-01
7.720e-01,8.843e-01
7.759e-01,8.045e-01
7.799e-01,7.305e-01
7.839e-01,6.620e-01
7.878e-01,5.989e-01
7.918e-01,5.408e-01
7.958e-01,4.875e-01
7.997e-01,4.386e-01
8.037e-01,3.940e-01
8.077e-01,3.533e-01
8.116e-01,3.163e-01
8.156e-01,2.827e-01
8.196e-01,2.523e-01
8.235e-01,2.247e-01
8.275e-01,1.999e-01
8.314e-01,1.775e-01
8.354e-01,1.574e-01
8.394e-01,1.394e-01
8.433e-01,1.232e-01
8.473e-01,1.088e-01
8.513e-01,9.588e-02
8.552e-01,8.440e-02
8.592e-01,7.419e-02
8.632e-01,6.513e-02
8.671e-01,5.709e-02
8.711e-01,4.998e-02
8.751e-01,4.370e-02
8.790e-01,3.816e-02
8.830e-01,3.328e-02
8.870e-01,2.898e-02
8.909e-01,2.521e-02
8.949e-01,2.190e-02
8.989e-01,1.901e-02
9.028e-01,1.648e-02
9.068e-01,1.426e-02
9.108e-01,1.233e-02
9.147e-01,1.065e-02
9.187e-01,9.192e-03
9.227e-01,7.922e-03
9.266e-01,6.820e-03
9.306e-01,5.865e-03
9.346e-01,5.039e-03
9.385e-01,4.324e-03
9.425e-01,3.707e-03
9.465e-01,3.175e-03
9.504e-01,2.717e-03
9.544e-01,2.322e-03
9.584e-01,1.983e-03
9.623e-01,1.692e-03
9.663e-01,1.442e-03
9.703e-01,1.228e-03
9.742e-01,1.045e-03
9.782e-01,8.879e-04
9.822e-01,7.541e-04
9.861e-01,6.398e-04
9.901e-01,5.425e-04
9.941e-01,4.595e-04
9.980e-01,3.889e-04
