transmittance,probability_density
1.501e-01,9.709e-08
1.537e-01,2.273e-07
1.573e-01,5.074e-07
1.608e-01,1.082e-06
1.644e-01,2.214e-06
1.680e-01,4.350e-06
1.715e-01,8.231e-06
1.751e-01,1.503e-05
1.787e-01,2.655e-05
1.822e-01,4.543e-05
1.858e-01,7.544e-05
1.894e-01,1.218e-04
1.929e-01,1.915e-04
1.965e-01,2.936e-04
2.001e-01,4.395e-04
2.036e-01,6.435e-04
2.072e-01,9.225e-04
2.108e-01,1.297e-03
2.143e-01,1.790e-03
2.179e-01,2.428e-03
2.215e-01,3.241e-03
2.250e-01,4.264e-03
2.286e-01,5.535e-03
2.321e-01,7.097e-03
2.357e-01,8.999e-03
2.393e-01,1.130e-02
2.428e-01,1.406e-02
2.464e-01,1.737e-02
2.500e-01,2.132e-02
2.535e-01,2.602e-02
2.571e-01,3.161e-02
2.607e-01,3.825e-02
2.642e-01,4.614e-02
2.678e-01,5.551e-02
2.714e-01,6.662e-02
2.749e-01,7.979e-02
2.785e-01,9.537e-02
2.821e-01,1.138e-01
2.856e-01,1.354e-01
2.892e-01,1.607e-01
2.928e-01,1.903e-01
2.963e-01,2.247e-01
2.999e-01,2.644e-01
3.035e-01,3.101e-01
3.070e-01,3.623e-01
3.106e-01,4.216e-01
3.141e-01,4.885e-01
3.177e-01,5.636e-01
3.213e-01,6.474e-01
3.248e-01,7.402e-01
3.284e-01,8.425e-01
3.320e-01,9.543e-01
3.355e-01,1.076e+00
3.391e-01,1.207e+00
3.427e-01,1.348e+00
3.462e-01,1.499e+00
3.498e-01,1.658e+00
3.534e-01,1.826e+00
3.569e-01,2.002e+00
3.605e-01,2.185e+00
3.641e-01,2.374e+00
3.676e-01,2.569e+00
3.712e-01,2.767e+00
3.748e-01,2.969e+00
3.783e-01,3.172e+00
3.819e-01,3.375e+00
3.855e-01,3.577e+00
3.890e-01,3.777e+00
3.926e-01,3.972e+00
3.961e-01,4.163e+00
3.997e-01,4.347e+00
4.033e-01,4.522e+00
4.068e-01,4.689e+00
4.104e-01,4.845e+00
4.140e-01,4.990e+00
4.175e-01,5.122e+00
4.211e-01,5.241e+00
4.247e-01,5.346e+00
4.282e-01,5.437e+00
4.318e-01,5.513e+00
4.354e-01,5.574e+00
4.389e-01,5.619e+00
4.425e-01,5.649e+00
4.461e-01,5.664e+00
4.496e-01,5.664e+00
4.532e-01,5.648e+00
4.568e-01,5.619e+00
4.603e-01,5.576e+00
4.639e-01,5.519e+00
4.675e-01,5.450e+00
4.710e-01,5.370e+00
4.746e-01,5.278e+00
4.781e-01,5.176e+00
4.817e-01,5.066e+00
4.853e-01,4.946e+00
4.888e-01,4.820e+00
4.924e-01,4.687e+00
4.960e-01,4.549e+00
4.995e-01,4.406e+00
5.031e-01,4.259e+00
5.067e-01,4.109e+00
5.102e-01,3.958e+00
5.138e-01,3.804e+00
5.174e-01,3.651e+00
5.209e-01,3.497e+00
5.245e-01,3.344e+00
5.281e-01,3.193e+00
5.316e-01,3.043e+00
5.352e-01,2.896e+00
5.388e-01,2.752e+00
5.423e-01,2.610e+00
5.459e-01,2.473e+00
5.495e-01,2.339e+00
5.530e-01,2.209e+00
5.566e-01,2.083e+00
5.601e-01,1.962e+00
5.637e-01,1.845e+00
5.673e-01,1.733e+00
5.708e-01,1.625e+00
5.744e-01,1.523e+00
5.780e-01,1.425e+00
5.815e-01,1.331e+00
5.851e-01,1.243e+00
5.887e-01,1.158e+00
5.922e-01,1.078e+00
5.958e-01,1.003e+00
5.994e-01,9.318e-01
6.029e-01,8.647e-01
6.065e-01,8.016e-01
6.101e-01,7.422e-01
6.136e-01,6.866e-01
6.172e-01,6.345e-01
6.208e-01,5.857e-01
6.243e-01,5.402e-01
6.279e-01,4.977e-01
6.315e-01,4.581e-01
6.350e-01,4.213e-01
6.386e-01,3.871e-01
6.421e-01,3.554e-01
6.457e-01,3.259e-01
6.493e-01,2.987e-01
6.528e-01,2.735e-01
6.564e-01,2.502e-01
6.600e-01,2.287e-01
6.635e-01,2.089e-01
6.671e-01,1.906e-01
6.707e-01,1.739e-01
6.742e-01,1.584e-01
6.778e-01,1.443e-01
6.814e-01,1.313e-01
6.849e-01,1.194e-01
6.885e-01,1.085e-01
6.921e-01,9.849e-02
6.956e-01,8.937e-02
6.992e-01,8.104e-02
7.028e-01,7.344e-02
7.063e-01,6.651e-02
7.099e-01,6.020e-02
7.135e-01,5.445e-02
7.170e-01,4.922e-02
7.206e-01,4.447e-02
7.241e-01,4.015e-02
7.277e-01,3.623e-02
7.313e-01,3.268e-02
7.348e-01,2.946e-02
7.384e-01,2.654e-02
7.420e-01,2.389e-02
7.455e-01,2.150e-02
7.491e-01,1.934e-02
7.527e-01,1.739e-02
7.562e-01,1.563e-02
7.598e-01,1.404e-02
7.634e-01,1.260e-02
7.669e-01,1.131e-02
7.705e-01,1.014e-02
7.741e-01,9.092e-03
7.776e-01,8.148e-03
7.812e-01,7.298e-03
7.848e-01,6.534e-03
7.883e-01,5.848e-03
7.919e-01,5.232e-03
7.955e-01,4.679e-03
7.990e-01,4.182e-03
8.026e-01,3.737e-03
8.061e-01,3.338e-03
8.097e-01,2.980e-03
8.133e-01,2.660e-03
8.168e-01,2.373e-03
8.204e-01,2.117e-03
8.240e-01,1.887e-03
8.275e-01,1.682e-03
8.311e-01,1.499e-03
8.347e-01,1.335e-03
8.382e-01,1.189e-03
8.418e-01,1.058e-03
8.454e-01,9.417e-04
8.489e-01,8.378e-04
8.525e-01,7.451e-04
8.561e-01,6.624e-04
8.596e-01,5.888e-04
