transmittance,probability_density
1.045e-01,3.163e-16
1.083e-01,2.632e-15
1.122e-01,1.898e-14
1.160e-01,1.200e-13
1.199e-01,6.724e-13
1.238e-01,3.372e-12
1.276e-01,1.526e-11
1.315e-01,6.285e-11
1.353e-01,2.371e-10
1.392e-01,8.249e-10
1.430e-01,2.661e-09
1.469e-01,8.002e-09
1.508e-01,2.254e-08
1.546e-01,5.974e-08
1.585e-01,1.496e-07
1.623e-01,3.551e-07
1.662e-01,8.022e-07
1.701e-01,1.730e-06
1.739e-01,3.570e-06
1.778e-01,7.076e-06
1.816e-01,1.350e-05
1.855e-01,2.484e-05
1.893e-01,4.421e-05
1.932e-01,7.625e-05
1.971e-01,1.277e-04
2.009e-01,2.081e-04
2.048e-01,3.306e-04
2.086e-01,5.127e-04
2.125e-01,7.777e-04
2.163e-01,1.156e-03
2.202e-01,1.685e-03
2.241e-01,2.412e-03
2.279e-01,3.398e-03
2.318e-01,4.715e-03
2.356e-01,6.452e-03
2.395e-01,8.714e-03
2.433e-01,1.163e-02
2.472e-01,1.535e-02
2.511e-01,2.006e-02
2.549e-01,2.596e-02
2.588e-01,3.331e-02
2.626e-01,4.238e-02
2.665e-01,5.351e-02
2.703e-01,6.706e-02
2.742e-01,8.344e-02
2.781e-01,1.031e-01
2.819e-01,1.266e-01
2.858e-01,1.544e-01
2.896e-01,1.872e-01
2.935e-01,2.256e-01
2.974e-01,2.701e-01
3.012e-01,3.215e-01
3.051e-01,3.804e-01
3.089e-01,4.475e-01
3.128e-01,5.233e-01
3.166e-01,6.085e-01
3.205e-01,7.035e-01
3.244e-01,8.087e-01
3.282e-01,9.245e-01
3.321e-01,1.051e+00
3.359e-01,1.188e+00
3.398e-01,1.336e+00
3.436e-01,1.495e+00
3.475e-01,1.663e+00
3.514e-01,1.841e+00
3.552e-01,2.027e+00
3.591e-01,2.222e+00
3.629e-01,2.423e+00
3.668e-01,2.629e+00
3.706e-01,2.840e+00
3.745e-01,3.053e+00
3.784e-01,3.268e+00
3.822e-01,3.481e+00
3.861e-01,3.693e+00
3.899e-01,3.901e+00
3.938e-01,4.103e+00
3.976e-01,4.298e+00
4.015e-01,4.484e+00
4.054e-01,4.660e+00
4.092e-01,4.824e+00
4.131e-01,4.975e+00
4.169e-01,5.112e+00
4.208e-01,5.234e+00
4.247e-01,5.340e+00
4.285e-01,5.429e+00
4.324e-01,5.501e+00
4.362e-01,5.556e+00
4.401e-01,5.593e+00
4.439e-01,5.613e+00
4.478e-01,5.615e+00
4.517e-01,5.601e+00
4.555e-01,5.570e+00
4.594e-01,5.523e+00
4.632e-01,5.462e+00
4.671e-01,5.386e+00
4.709e-01,5.297e+00
4.748e-01,5.195e+00
4.787e-01,5.083e+00
4.825e-01,4.961e+00
4.864e-01,4.829e+00
4.902e-01,4.690e+00
4.941e-01,4.544e+00
4.979e-01,4.392e+00
5.018e-01,4.236e+00
5.057e-01,4.077e+00
5.095e-01,3.915e+00
5.134e-01,3.752e+00
5.172e-01,3.588e+00
5.211e-01,3.424e+00
5.249e-01,3.261e+00
5.288e-01,3.101e+00
5.327e-01,2.942e+00
5.365e-01,2.786e+00
5.404e-01,2.634e+00
5.442e-01,2.486e+00
5.481e-01,2.342e+00
5.520e-01,2.203e+00
5.558e-01,2.068e+00
5.597e-01,1.939e+00
5.635e-01,1.815e+00
5.674e-01,1.696e+00
5.712e-01,1.583e+00
5.751e-01,1.475e+00
5.790e-01,1.372e+00
5.828e-01,1.274e+00
5.867e-01,1.182e+00
5.905e-01,1.095e+00
5.944e-01,1.014e+00
5.982e-01,9.365e-01
6.021e-01,8.643e-01
6.060e-01,7.966e-01
6.098e-01,7.333e-01
6.137e-01,6.742e-01
6.175e-01,6.192e-01
6.214e-01,5.680e-01
6.252e-01,5.204e-01
6.291e-01,4.763e-01
6.330e-01,4.355e-01
6.368e-01,3.977e-01
6.407e-01,3.628e-01
6.445e-01,3.307e-01
6.484e-01,3.011e-01
6.522e-01,2.739e-01
6.561e-01,2.489e-01
6.600e-01,2.259e-01
6.638e-01,2.049e-01
6.677e-01,1.857e-01
6.715e-01,1.682e-01
6.754e-01,1.521e-01
6.793e-01,1.375e-01
6.831e-01,1.242e-01
6.870e-01,1.121e-01
6.908e-01,1.010e-01
6.947e-01,9.104e-02
6.985e-01,8.196e-02
7.024e-01,7.373e-02
7.063e-01,6.628e-02
7.101e-01,5.954e-02
7.140e-01,5.345e-02
7.178e-01,4.794e-02
7.217e-01,4.298e-02
7.255e-01,3.850e-02
7.294e-01,3.447e-02
7.333e-01,3.084e-02
7.371e-01,2.757e-02
7.410e-01,2.464e-02
7.448e-01,2.200e-02
7.487e-01,1.964e-02
7.525e-01,1.752e-02
7.564e-01,1.562e-02
7.603e-01,1.391e-02
7.641e-01,1.239e-02
7.680e-01,1.103e-02
7.718e-01,9.811e-03
7.757e-01,8.723e-03
7.795e-01,7.752e-03
7.834e-01,6.886e-03
7.873e-01,6.113e-03
7.911e-01,5.425e-03
7.950e-01,4.812e-03
7.988e-01,4.266e-03
8.027e-01,3.781e-03
8.066e-01,3.349e-03
8.104e-01,2.965e-03
8.143e-01,2.624e-03
8.181e-01,2.322e-03
8.220e-01,2.053e-03
8.258e-01,1.815e-03
8.297e-01,1.604e-03
8.336e-01,1.417e-03
8.374e-01,1.251e-03
8.413e-01,1.104e-03
8.451e-01,9.743e-04
8.490e-01,8.594e-04
8.528e-01,7.578e-04
8.567e-01,6.680e-04
8.606e-01,5.886e-04
8.644e-01,5.185e-04
8.683e-01,4.566e-04
8.721e-01,4.020e-04
