transmittance,probability_density
5.789e-01,1.373e-10
5.810e-01,2.125e-10
5.831e-01,3.268e-10
5.852e-01,4.991e-10
5.873e-01,7.574e-10
5.894e-01,1.142e-09
5.915e-01,1.711e-09
5.937e-01,2.547e-09
5.958e-01,3.769e-09
5.979e-01,5.542e-09
6.000e-01,8.099e-09
6.021e-01,1.177e-08
6.042e-01,1.699e-08
6.063e-01,2.439e-08
6.084e-01,3.482e-08
6.105e-01,4.941e-08
6.126e-01,6.971e-08
6.148e-01,9.780e-08
6.169e-01,1.365e-07
6.190e-01,1.893e-07
6.211e-01,2.612e-07
6.232e-01,3.585e-07
6.253e-01,4.895e-07
6.274e-01,6.646e-07
6.295e-01,8.978e-07
6.316e-01,1.206e-06
6.338e-01,1.613e-06
6.359e-01,2.145e-06
6.380e-01,2.839e-06
6.401e-01,3.738e-06
6.422e-01,4.899e-06
6.443e-01,6.388e-06
6.464e-01,8.289e-06
6.485e-01,1.071e-05
6.506e-01,1.376e-05
6.528e-01,1.761e-05
6.549e-01,2.242e-05
6.570e-01,2.842e-05
6.591e-01,3.587e-05
6.612e-01,4.506e-05
6.633e-01,5.636e-05
6.654e-01,7.018e-05
6.675e-01,8.702e-05
6.696e-01,1.074e-04
6.718e-01,1.321e-04
6.739e-01,1.617e-04
6.760e-01,1.971e-04
6.781e-01,2.392e-04
6.802e-01,2.892e-04
6.823e-01,3.483e-04
6.844e-01,4.178e-04
6.865e-01,4.992e-04
6.886e-01,5.941e-04
6.908e-01,7.043e-04
6.929e-01,8.318e-04
6.950e-01,9.788e-04
6.971e-01,1.148e-03
6.992e-01,1.340e-03
7.013e-01,1.560e-03
7.034e-01,1.810e-03
7.055e-01,2.092e-03
7.076e-01,2.409e-03
7.097e-01,2.766e-03
7.119e-01,3.165e-03
7.140e-01,3.611e-03
7.161e-01,4.106e-03
7.182e-01,4.654e-03
7.203e-01,5.260e-03
7.224e-01,5.927e-03
7.245e-01,6.661e-03
7.266e-01,7.465e-03
7.287e-01,8.343e-03
7.309e-01,9.302e-03
7.330e-01,1.035e-02
7.351e-01,1.148e-02
7.372e-01,1.271e-02
7.393e-01,1.404e-02
7.414e-01,1.549e-02
7.435e-01,1.705e-02
7.456e-01,1.873e-02
7.477e-01,2.056e-02
7.499e-01,2.253e-02
7.520e-01,2.467e-02
7.541e-01,2.698e-02
7.562e-01,2.949e-02
7.583e-01,3.221e-02
7.604e-01,3.517e-02
7.625e-01,3.840e-02
7.646e-01,4.192e-02
7.667e-01,4.579e-02
7.689e-01,5.003e-02
7.710e-01,5.470e-02
7.731e-01,5.985e-02
7.752e-01,6.556e-02
7.773e-01,7.190e-02
7.794e-01,7.896e-02
7.815e-01,8.683e-02
7.836e-01,9.563e-02
7.857e-01,1.055e-01
7.879e-01,1.166e-01
7.900e-01,1.290e-01
7.921e-01,1.430e-01
7.942e-01,1.588e-01
7.963e-01,1.766e-01
7.984e-01,1.968e-01
8.005e-01,2.195e-01
8.026e-01,2.452e-01
8.047e-01,2.742e-01
8.069e-01,3.069e-01
8.090e-01,3.439e-01
8.111e-01,3.856e-01
8.132e-01,4.327e-01
8.153e-01,4.857e-01
8.174e-01,5.454e-01
8.195e-01,6.125e-01
8.216e-01,6.879e-01
8.237e-01,7.724e-01
8.258e-01,8.671e-01
8.280e-01,9.729e-01
8.301e-01,1.091e+00
8.322e-01,1.222e+00
8.343e-01,1.369e+00
8.364e-01,1.531e+00
8.385e-01,1.710e+00
8.406e-01,1.907e+00
8.427e-01,2.125e+00
8.448e-01,2.363e+00
8.470e-01,2.624e+00
8.491e-01,2.907e+00
8.512e-01,3.215e+00
8.533e-01,3.547e+00
8.554e-01,3.904e+00
8.575e-01,4.287e+00
8.596e-01,4.693e+00
8.617e-01,5.124e+00
8.638e-01,5.578e+00
8.660e-01,6.052e+00
8.681e-01,6.544e+00
8.702e-01,7.052e+00
8.723e-01,7.572e+00
8.744e-01,8.100e+00
8.765e-01,8.630e+00
8.786e-01,9.158e+00
8.807e-01,9.678e+00
8.828e-01,1.018e+01
8.850e-01,1.067e+01
8.871e-01,1.113e+01
8.892e-01,1.155e+01
8.913e-01,1.193e+01
8.934e-01,1.227e+01
8.955e-01,1.256e+01
8.976e-01,1.279e+01
8.997e-01,1.296e+01
9.018e-01,1.306e+01
9.040e-01,1.310e+01
9.061e-01,1.307e+01
9.082e-01,1.298e+01
9.103e-01,1.281e+01
9.124e-01,1.259e+01
9.145e-01,1.230e+01
9.166e-01,1.196e+01
9.187e-01,1.156e+01
9.208e-01,1.112e+01
9.230e-01,1.063e+01
9.251e-01,1.012e+01
9.272e-01,9.574e+00
9.293e-01,9.012e+00
9.314e-01,8.438e+00
9.335e-01,7.859e+00
9.356e-01,7.280e+00
9.377e-01,6.708e+00
9.398e-01,6.148e+00
9.420e-01,5.605e+00
9.441e-01,5.083e+00
9.462e-01,4.585e+00
9.483e-01,4.115e+00
9.504e-01,3.673e+00
9.525e-01,3.262e+00
9.546e-01,2.882e+00
9.567e-01,2.533e+00
9.588e-01,2.215e+00
9.609e-01,1.927e+00
9.631e-01,1.668e+00
9.652e-01,1.437e+00
9.673e-01,1.231e+00
9.694e-01,1.050e+00
9.715e-01,8.907e-01
9.736e-01,7.520e-01
9.757e-01,6.319e-01
9.778e-01,5.284e-01
9.799e-01,4.397e-01
9.821e-01,3.642e-01
9.842e-01,3.002e-01
9.863e-01,2.463e-01
9.884e-01,2.012e-01
9.905e-01,1.635e-01
9.926e-01,1.323e-01
9.947e-01,1.066e-01
9.968e-01,8.551e-02
9.989e-01,6.828e-02
