transmittance,probability_density
5.194e-01,1.419e-14
5.218e-01,2.717e-14
5.242e-01,5.146e-14
5.266e-01,9.646e-14
5.290e-01,1.789e-13
5.314e-01,3.286e-13
5.338e-01,5.973e-13
5.362e-01,1.075e-12
5.387e-01,1.916e-12
5.411e-01,3.381e-12
5.435e-01,5.910e-12
5.459e-01,1.023e-11
5.483e-01,1.755e-11
5.507e-01,2.983e-11
5.531e-01,5.023e-11
5.555e-01,8.383e-11
5.579e-01,1.387e-10
5.603e-01,2.274e-10
5.627e-01,3.695e-10
5.652e-01,5.955e-10
5.676e-01,9.515e-10
5.700e-01,1.508e-09
5.724e-01,2.369e-09
5.748e-01,3.693e-09
5.772e-01,5.709e-09
5.796e-01,8.757e-09
5.820e-01,1.333e-08
5.844e-01,2.012e-08
5.868e-01,3.015e-08
5.892e-01,4.483e-08
5.917e-01,6.617e-08
5.941e-01,9.694e-08
5.965e-01,1.410e-07
5.989e-01,2.036e-07
6.013e-01,2.919e-07
6.037e-01,4.155e-07
6.061e-01,5.874e-07
6.085e-01,8.248e-07
6.109e-01,1.150e-06
6.133e-01,1.594e-06
6.158e-01,2.193e-06
6.182e-01,2.999e-06
6.206e-01,4.075e-06
6.230e-01,5.502e-06
6.254e-01,7.382e-06
6.278e-01,9.845e-06
6.302e-01,1.305e-05
6.326e-01,1.720e-05
6.350e-01,2.253e-05
6.374e-01,2.935e-05
6.398e-01,3.801e-05
6.422e-01,4.896e-05
6.447e-01,6.272e-05
6.471e-01,7.992e-05
6.495e-01,1.013e-04
6.519e-01,1.277e-04
6.543e-01,1.603e-04
6.567e-01,2.001e-04
6.591e-01,2.485e-04
6.615e-01,3.073e-04
6.639e-01,3.782e-04
6.663e-01,4.634e-04
6.687e-01,5.653e-04
6.712e-01,6.866e-04
6.736e-01,8.304e-04
6.760e-01,1.000e-03
6.784e-01,1.200e-03
6.808e-01,1.434e-03
6.832e-01,1.708e-03
6.856e-01,2.026e-03
6.880e-01,2.396e-03
6.904e-01,2.823e-03
6.928e-01,3.316e-03
6.952e-01,3.883e-03
6.977e-01,4.533e-03
7.001e-01,5.277e-03
7.025e-01,6.127e-03
7.049e-01,7.094e-03
7.073e-01,8.195e-03
7.097e-01,9.443e-03
7.121e-01,1.086e-02
7.145e-01,1.246e-02
7.169e-01,1.427e-02
7.193e-01,1.630e-02
7.217e-01,1.860e-02
7.242e-01,2.119e-02
7.266e-01,2.409e-02
7.290e-01,2.736e-02
7.314e-01,3.103e-02
7.338e-01,3.514e-02
7.362e-01,3.975e-02
7.386e-01,4.492e-02
7.410e-01,5.070e-02
7.434e-01,5.717e-02
7.458e-01,6.442e-02
7.482e-01,7.252e-02
7.507e-01,8.158e-02
7.531e-01,9.170e-02
7.555e-01,1.030e-01
7.579e-01,1.156e-01
7.603e-01,1.298e-01
7.627e-01,1.455e-01
7.651e-01,1.631e-01
7.675e-01,1.828e-01
7.699e-01,2.047e-01
7.723e-01,2.292e-01
7.747e-01,2.566e-01
7.772e-01,2.871e-01
7.796e-01,3.212e-01
7.820e-01,3.593e-01
7.844e-01,4.018e-01
7.868e-01,4.492e-01
7.892e-01,5.022e-01
7.916e-01,5.613e-01
7.940e-01,6.273e-01
7.964e-01,7.009e-01
7.988e-01,7.829e-01
8.013e-01,8.743e-01
8.037e-01,9.760e-01
8.061e-01,1.089e+00
8.085e-01,1.215e+00
8.109e-01,1.354e+00
8.133e-01,1.508e+00
8.157e-01,1.678e+00
8.181e-01,1.866e+00
8.205e-01,2.071e+00
8.229e-01,2.297e+00
8.253e-01,2.543e+00
8.277e-01,2.811e+00
8.302e-01,3.101e+00
8.326e-01,3.413e+00
8.350e-01,3.748e+00
8.374e-01,4.106e+00
8.398e-01,4.486e+00
8.422e-01,4.886e+00
8.446e-01,5.306e+00
8.470e-01,5.743e+00
8.494e-01,6.194e+00
8.518e-01,6.656e+00
8.542e-01,7.125e+00
8.567e-01,7.597e+00
8.591e-01,8.066e+00
8.615e-01,8.529e+00
8.639e-01,8.978e+00
8.663e-01,9.409e+00
8.687e-01,9.815e+00
8.711e-01,1.019e+01
8.735e-01,1.053e+01
8.759e-01,1.083e+01
8.783e-01,1.108e+01
8.807e-01,1.127e+01
8.832e-01,1.142e+01
8.856e-01,1.151e+01
8.880e-01,1.153e+01
8.904e-01,1.150e+01
8.928e-01,1.141e+01
8.952e-01,1.125e+01
8.976e-01,1.105e+01
9.000e-01,1.078e+01
9.024e-01,1.047e+01
9.048e-01,1.011e+01
9.073e-01,9.716e+00
9.097e-01,9.284e+00
9.121e-01,8.823e+00
9.145e-01,8.341e+00
9.169e-01,7.843e+00
9.193e-01,7.335e+00
9.217e-01,6.824e+00
9.241e-01,6.314e+00
9.265e-01,5.812e+00
9.289e-01,5.321e+00
9.313e-01,4.847e+00
9.338e-01,4.391e+00
9.362e-01,3.958e+00
9.386e-01,3.548e+00
9.410e-01,3.165e+00
9.434e-01,2.809e+00
9.458e-01,2.480e+00
9.482e-01,2.178e+00
9.506e-01,1.903e+00
9.530e-01,1.655e+00
9.554e-01,1.432e+00
9.578e-01,1.233e+00
9.603e-01,1.056e+00
9.627e-01,9.004e-01
9.651e-01,7.638e-01
9.675e-01,6.449e-01
9.699e-01,5.418e-01
9.723e-01,4.531e-01
9.747e-01,3.771e-01
9.771e-01,3.124e-01
9.795e-01,2.576e-01
9.819e-01,2.114e-01
9.843e-01,1.727e-01
9.868e-01,1.405e-01
9.892e-01,1.137e-01
9.916e-01,9.168e-02
9.940e-01,7.358e-02
9.964e-01,5.879e-02
9.988e-01,4.678e-02
