transmittance,probability_density
6.073e-01,8.940e-16
6.092e-01,1.642e-15
6.112e-01,2.993e-15
6.132e-01,5.410e-15
6.151e-01,9.704e-15
6.171e-01,1.727e-14
6.191e-01,3.050e-14
6.210e-01,5.345e-14
6.230e-01,9.296e-14
6.250e-01,1.605e-13
6.269e-01,2.750e-13
6.289e-01,4.676e-13
6.309e-01,7.895e-13
6.328e-01,1.323e-12
6.348e-01,2.202e-12
6.368e-01,3.638e-12
6.388e-01,5.968e-12
6.407e-01,9.722e-12
6.427e-01,1.573e-11
6.447e-01,2.527e-11
6.466e-01,4.032e-11
6.486e-01,6.391e-11
6.506e-01,1.006e-10
6.525e-01,1.573e-10
6.545e-01,2.444e-10
6.565e-01,3.772e-10
6.584e-01,5.785e-10
6.604e-01,8.813e-10
6.624e-01,1.334e-09
6.643e-01,2.007e-09
6.663e-01,3.001e-09
6.683e-01,4.458e-09
6.703e-01,6.582e-09
6.722e-01,9.660e-09
6.742e-01,1.409e-08
6.762e-01,2.043e-08
6.781e-01,2.945e-08
6.801e-01,4.220e-08
6.821e-01,6.013e-08
6.840e-01,8.516e-08
6.860e-01,1.199e-07
6.880e-01,1.680e-07
6.899e-01,2.339e-07
6.919e-01,3.238e-07
6.939e-01,4.460e-07
6.958e-01,6.108e-07
6.978e-01,8.321e-07
6.998e-01,1.127e-06
7.018e-01,1.520e-06
7.037e-01,2.037e-06
7.057e-01,2.717e-06
7.077e-01,3.606e-06
7.096e-01,4.760e-06
7.116e-01,6.253e-06
7.136e-01,8.173e-06
7.155e-01,1.063e-05
7.175e-01,1.376e-05
7.195e-01,1.773e-05
7.214e-01,2.273e-05
7.234e-01,2.900e-05
7.254e-01,3.684e-05
7.273e-01,4.658e-05
7.293e-01,5.864e-05
7.313e-01,7.350e-05
7.332e-01,9.172e-05
7.352e-01,1.140e-04
7.372e-01,1.410e-04
7.392e-01,1.738e-04
7.411e-01,2.133e-04
7.431e-01,2.607e-04
7.451e-01,3.174e-04
7.470e-01,3.850e-04
7.490e-01,4.653e-04
7.510e-01,5.602e-04
7.529e-01,6.722e-04
7.549e-01,8.037e-04
7.569e-01,9.576e-04
7.588e-01,1.137e-03
7.608e-01,1.346e-03
7.628e-01,1.589e-03
7.647e-01,1.870e-03
7.667e-01,2.194e-03
7.687e-01,2.567e-03
7.707e-01,2.995e-03
7.726e-01,3.485e-03
7.746e-01,4.046e-03
7.766e-01,4.685e-03
7.785e-01,5.413e-03
7.805e-01,6.241e-03
7.825e-01,7.180e-03
7.844e-01,8.244e-03
7.864e-01,9.448e-03
7.884e-01,1.081e-02
7.903e-01,1.234e-02
7.923e-01,1.408e-02
7.943e-01,1.603e-02
7.962e-01,1.822e-02
7.982e-01,2.069e-02
8.002e-01,2.347e-02
8.022e-01,2.659e-02
8.041e-01,3.009e-02
8.061e-01,3.402e-02
8.081e-01,3.843e-02
8.100e-01,4.337e-02
8.120e-01,4.891e-02
8.140e-01,5.512e-02
8.159e-01,6.208e-02
8.179e-01,6.987e-02
8.199e-01,7.859e-02
8.218e-01,8.836e-02
8.238e-01,9.929e-02
8.258e-01,1.115e-01
8.277e-01,1.252e-01
8.297e-01,1.406e-01
8.317e-01,1.577e-01
8.337e-01,1.769e-01
8.356e-01,1.984e-01
8.376e-01,2.225e-01
8.396e-01,2.494e-01
8.415e-01,2.795e-01
8.435e-01,3.133e-01
8.455e-01,3.512e-01
8.474e-01,3.936e-01
8.494e-01,4.412e-01
8.514e-01,4.946e-01
8.533e-01,5.546e-01
8.553e-01,6.219e-01
8.573e-01,6.975e-01
8.592e-01,7.825e-01
8.612e-01,8.781e-01
8.632e-01,9.856e-01
8.651e-01,1.106e+00
8.671e-01,1.242e+00
8.691e-01,1.395e+00
8.711e-01,1.567e+00
8.730e-01,1.760e+00
8.750e-01,1.976e+00
8.770e-01,2.219e+00
8.789e-01,2.490e+00
8.809e-01,2.793e+00
8.829e-01,3.130e+00
8.848e-01,3.504e+00
8.868e-01,3.916e+00
8.888e-01,4.371e+00
8.907e-01,4.868e+00
8.927e-01,5.410e+00
8.947e-01,5.996e+00
8.966e-01,6.625e+00
8.986e-01,7.296e+00
9.006e-01,8.005e+00
9.026e-01,8.748e+00
9.045e-01,9.517e+00
9.065e-01,1.030e+01
9.085e-01,1.110e+01
9.104e-01,1.190e+01
9.124e-01,1.267e+01
9.144e-01,1.342e+01
9.163e-01,1.413e+01
9.183e-01,1.478e+01
9.203e-01,1.536e+01
9.222e-01,1.585e+01
9.242e-01,1.624e+01
9.262e-01,1.652e+01
9.281e-01,1.669e+01
9.301e-01,1.673e+01
9.321e-01,1.665e+01
9.341e-01,1.644e+01
9.360e-01,1.611e+01
9.380e-01,1.566e+01
9.400e-01,1.510e+01
9.419e-01,1.445e+01
9.439e-01,1.372e+01
9.459e-01,1.292e+01
9.478e-01,1.207e+01
9.498e-01,1.119e+01
9.518e-01,1.029e+01
9.537e-01,9.380e+00
9.557e-01,8.486e+00
9.577e-01,7.615e+00
9.596e-01,6.780e+00
9.616e-01,5.988e+00
9.636e-01,5.247e+00
9.655e-01,4.561e+00
9.675e-01,3.933e+00
9.695e-01,3.366e+00
9.715e-01,2.858e+00
9.734e-01,2.408e+00
9.754e-01,2.013e+00
9.774e-01,1.671e+00
9.793e-01,1.376e+00
9.813e-01,1.124e+00
9.833e-01,9.123e-01
9.852e-01,7.348e-01
9.872e-01,5.876e-01
9.892e-01,4.665e-01
9.911e-01,3.678e-01
9.931e-01,2.879e-01
9.951e-01,2.239e-01
9.970e-01,1.729e-01
9.990e-01,1.327e-01
