transmittance,probability_density
6.935e-01,2.397e-16
6.950e-01,4.192e-16
6.966e-01,7.286e-16
6.981e-01,1.259e-15
6.996e-01,2.161e-15
7.012e-01,3.689e-15
7.027e-01,6.260e-15
7.042e-01,1.056e-14
7.058e-01,1.771e-14
7.073e-01,2.952e-14
7.089e-01,4.893e-14
7.104e-01,8.064e-14
7.119e-01,1.321e-13
7.135e-01,2.153e-13
7.150e-01,3.488e-13
7.165e-01,5.619e-13
7.181e-01,9.002e-13
7.196e-01,1.434e-12
7.211e-01,2.272e-12
7.227e-01,3.580e-12
7.242e-01,5.611e-12
7.258e-01,8.745e-12
7.273e-01,1.356e-11
7.288e-01,2.091e-11
7.304e-01,3.207e-11
7.319e-01,4.893e-11
7.334e-01,7.425e-11
7.350e-01,1.121e-10
7.365e-01,1.684e-10
7.380e-01,2.516e-10
7.396e-01,3.741e-10
7.411e-01,5.532e-10
7.427e-01,8.141e-10
7.442e-01,1.192e-09
7.457e-01,1.737e-09
7.473e-01,2.517e-09
7.488e-01,3.631e-09
7.503e-01,5.212e-09
7.519e-01,7.445e-09
7.534e-01,1.058e-08
7.549e-01,1.497e-08
7.565e-01,2.108e-08
7.580e-01,2.953e-08
7.596e-01,4.119e-08
7.611e-01,5.717e-08
7.626e-01,7.898e-08
7.642e-01,1.086e-07
7.657e-01,1.487e-07
7.672e-01,2.025e-07
7.688e-01,2.747e-07
7.703e-01,3.709e-07
7.718e-01,4.986e-07
7.734e-01,6.672e-07
7.749e-01,8.889e-07
7.765e-01,1.179e-06
7.780e-01,1.557e-06
7.795e-01,2.048e-06
7.811e-01,2.681e-06
7.826e-01,3.495e-06
7.841e-01,4.538e-06
7.857e-01,5.866e-06
7.872e-01,7.552e-06
7.887e-01,9.683e-06
7.903e-01,1.236e-05
7.918e-01,1.572e-05
7.934e-01,1.992e-05
7.949e-01,2.513e-05
7.964e-01,3.158e-05
7.980e-01,3.953e-05
7.995e-01,4.930e-05
8.010e-01,6.124e-05
8.026e-01,7.580e-05
8.041e-01,9.347e-05
8.056e-01,1.148e-04
8.072e-01,1.406e-04
8.087e-01,1.715e-04
8.103e-01,2.085e-04
8.118e-01,2.526e-04
8.133e-01,3.050e-04
8.149e-01,3.670e-04
8.164e-01,4.403e-04
8.179e-01,5.265e-04
8.195e-01,6.276e-04
8.210e-01,7.459e-04
8.226e-01,8.839e-04
8.241e-01,1.044e-03
8.256e-01,1.231e-03
8.272e-01,1.446e-03
8.287e-01,1.695e-03
8.302e-01,1.981e-03
8.318e-01,2.310e-03
8.333e-01,2.688e-03
8.348e-01,3.120e-03
8.364e-01,3.613e-03
8.379e-01,4.176e-03
8.394e-01,4.816e-03
8.410e-01,5.544e-03
8.425e-01,6.370e-03
8.441e-01,7.307e-03
8.456e-01,8.368e-03
8.471e-01,9.568e-03
8.487e-01,1.092e-02
8.502e-01,1.246e-02
8.517e-01,1.418e-02
8.533e-01,1.613e-02
8.548e-01,1.833e-02
8.563e-01,2.080e-02
8.579e-01,2.359e-02
8.594e-01,2.672e-02
8.610e-01,3.025e-02
8.625e-01,3.421e-02
8.640e-01,3.867e-02
8.656e-01,4.368e-02
8.671e-01,4.932e-02
8.686e-01,5.565e-02
8.702e-01,6.277e-02
8.717e-01,7.077e-02
8.732e-01,7.976e-02
8.748e-01,8.986e-02
8.763e-01,1.012e-01
8.779e-01,1.140e-01
8.794e-01,1.283e-01
8.809e-01,1.444e-01
8.825e-01,1.624e-01
8.840e-01,1.828e-01
8.855e-01,2.056e-01
8.871e-01,2.313e-01
8.886e-01,2.601e-01
8.901e-01,2.926e-01
8.917e-01,3.292e-01
8.932e-01,3.703e-01
8.948e-01,4.167e-01
8.963e-01,4.690e-01
8.978e-01,5.281e-01
8.994e-01,5.948e-01
9.009e-01,6.701e-01
9.024e-01,7.554e-01
9.040e-01,8.520e-01
9.055e-01,9.615e-01
9.071e-01,1.086e+00
9.086e-01,1.227e+00
9.101e-01,1.387e+00
9.117e-01,1.570e+00
9.132e-01,1.778e+00
9.147e-01,2.014e+00
9.163e-01,2.284e+00
9.178e-01,2.591e+00
9.193e-01,2.941e+00
9.209e-01,3.339e+00
9.224e-01,3.791e+00
9.240e-01,4.304e+00
9.255e-01,4.884e+00
9.270e-01,5.537e+00
9.286e-01,6.271e+00
9.301e-01,7.090e+00
9.316e-01,7.998e+00
9.332e-01,8.998e+00
9.347e-01,1.009e+01
9.362e-01,1.127e+01
9.378e-01,1.253e+01
9.393e-01,1.386e+01
9.408e-01,1.524e+01
9.424e-01,1.665e+01
9.439e-01,1.806e+01
9.455e-01,1.945e+01
9.470e-01,2.077e+01
9.485e-01,2.200e+01
9.501e-01,2.308e+01
9.516e-01,2.399e+01
9.531e-01,2.469e+01
9.547e-01,2.516e+01
9.562e-01,2.536e+01
9.577e-01,2.530e+01
9.593e-01,2.496e+01
9.608e-01,2.435e+01
9.624e-01,2.349e+01
9.639e-01,2.240e+01
9.654e-01,2.111e+01
9.670e-01,1.967e+01
9.685e-01,1.811e+01
9.700e-01,1.648e+01
9.716e-01,1.482e+01
9.731e-01,1.317e+01
9.747e-01,1.157e+01
9.762e-01,1.004e+01
9.777e-01,8.617e+00
9.793e-01,7.308e+00
9.808e-01,6.127e+00
9.823e-01,5.079e+00
9.839e-01,4.162e+00
9.854e-01,3.373e+00
9.869e-01,2.704e+00
9.885e-01,2.144e+00
9.900e-01,1.683e+00
9.916e-01,1.307e+00
9.931e-01,1.004e+00
9.946e-01,7.646e-01
9.962e-01,5.765e-01
9.977e-01,4.307e-01
9.992e-01,3.189e-01
