transmittance,probability_density
8.118e-01,1.677e-23
8.128e-01,3.350e-23
8.137e-01,6.653e-23
8.147e-01,1.314e-22
8.156e-01,2.580e-22
8.166e-01,5.036e-22
8.175e-01,9.778e-22
8.184e-01,1.888e-21
8.194e-01,3.623e-21
8.203e-01,6.917e-21
8.213e-01,1.313e-20
8.222e-01,2.479e-20
8.232e-01,4.653e-20
8.241e-01,8.688e-20
8.250e-01,1.613e-19
8.260e-01,2.979e-19
8.269e-01,5.470e-19
8.279e-01,9.991e-19
8.288e-01,1.815e-18
8.298e-01,3.279e-18
8.307e-01,5.894e-18
8.316e-01,1.053e-17
8.326e-01,1.873e-17
8.335e-01,3.312e-17
8.345e-01,5.826e-17
8.354e-01,1.019e-16
8.364e-01,1.774e-16
8.373e-01,3.072e-16
8.382e-01,5.291e-16
8.392e-01,9.065e-16
8.401e-01,1.545e-15
8.411e-01,2.620e-15
8.420e-01,4.419e-15
8.430e-01,7.416e-15
8.439e-01,1.238e-14
8.448e-01,2.057e-14
8.458e-01,3.399e-14
8.467e-01,5.588e-14
8.477e-01,9.142e-14
8.486e-01,1.488e-13
8.496e-01,2.410e-13
8.505e-01,3.883e-13
8.514e-01,6.226e-13
8.524e-01,9.933e-13
8.533e-01,1.577e-12
8.543e-01,2.491e-12
8.552e-01,3.916e-12
8.562e-01,6.126e-12
8.571e-01,9.537e-12
8.581e-01,1.477e-11
8.590e-01,2.278e-11
8.599e-01,3.495e-11
8.609e-01,5.336e-11
8.618e-01,8.110e-11
8.628e-01,1.227e-10
8.637e-01,1.846e-10
8.647e-01,2.766e-10
8.656e-01,4.125e-10
8.665e-01,6.122e-10
8.675e-01,9.044e-10
8.684e-01,1.330e-09
8.694e-01,1.946e-09
8.703e-01,2.836e-09
8.713e-01,4.113e-09
8.722e-01,5.937e-09
8.731e-01,8.532e-09
8.741e-01,1.221e-08
8.750e-01,1.738e-08
8.760e-01,2.465e-08
8.769e-01,3.479e-08
8.779e-01,4.888e-08
8.788e-01,6.838e-08
8.797e-01,9.525e-08
8.807e-01,1.321e-07
8.816e-01,1.824e-07
8.826e-01,2.507e-07
8.835e-01,3.431e-07
8.845e-01,4.676e-07
8.854e-01,6.345e-07
8.863e-01,8.574e-07
8.873e-01,1.154e-06
8.882e-01,1.546e-06
8.892e-01,2.062e-06
8.901e-01,2.740e-06
8.911e-01,3.625e-06
8.920e-01,4.776e-06
8.929e-01,6.268e-06
8.939e-01,8.191e-06
8.948e-01,1.066e-05
8.958e-01,1.382e-05
8.967e-01,1.784e-05
8.977e-01,2.294e-05
8.986e-01,2.939e-05
8.996e-01,3.749e-05
9.005e-01,4.765e-05
9.014e-01,6.033e-05
9.024e-01,7.608e-05
9.033e-01,9.559e-05
9.043e-01,1.196e-04
9.052e-01,1.492e-04
9.062e-01,1.854e-04
9.071e-01,2.295e-04
9.080e-01,2.831e-04
9.090e-01,3.480e-04
9.099e-01,4.264e-04
9.109e-01,5.206e-04
9.118e-01,6.335e-04
9.128e-01,7.683e-04
9.137e-01,9.290e-04
9.146e-01,1.120e-03
9.156e-01,1.346e-03
9.165e-01,1.612e-03
9.175e-01,1.926e-03
9.184e-01,2.295e-03
9.194e-01,2.727e-03
9.203e-01,3.233e-03
9.212e-01,3.823e-03
9.222e-01,4.510e-03
9.231e-01,5.308e-03
9.241e-01,6.235e-03
9.250e-01,7.309e-03
9.260e-01,8.553e-03
9.269e-01,9.991e-03
9.278e-01,1.165e-02
9.288e-01,1.357e-02
9.297e-01,1.578e-02
9.307e-01,1.833e-02
9.316e-01,2.126e-02
9.326e-01,2.465e-02
9.335e-01,2.854e-02
9.344e-01,3.303e-02
9.354e-01,3.820e-02
9.363e-01,4.415e-02
9.373e-01,5.101e-02
9.382e-01,5.892e-02
9.392e-01,6.804e-02
9.401e-01,7.855e-02
9.411e-01,9.070e-02
9.420e-01,1.047e-01
9.429e-01,1.209e-01
9.439e-01,1.397e-01
9.448e-01,1.613e-01
9.458e-01,1.864e-01
9.467e-01,2.155e-01
9.477e-01,2.492e-01
9.486e-01,2.883e-01
9.495e-01,3.336e-01
9.505e-01,3.864e-01
9.514e-01,4.477e-01
9.524e-01,5.192e-01
9.533e-01,6.025e-01
9.543e-01,6.999e-01
9.552e-01,8.138e-01
9.561e-01,9.474e-01
9.571e-01,1.104e+00
9.580e-01,1.289e+00
9.590e-01,1.508e+00
9.599e-01,1.766e+00
9.609e-01,2.073e+00
9.618e-01,2.438e+00
9.627e-01,2.875e+00
9.637e-01,3.398e+00
9.646e-01,4.025e+00
9.656e-01,4.781e+00
9.665e-01,5.693e+00
9.675e-01,6.795e+00
9.684e-01,8.129e+00
9.693e-01,9.745e+00
9.703e-01,1.170e+01
9.712e-01,1.405e+01
9.722e-01,1.688e+01
9.731e-01,2.023e+01
9.741e-01,2.415e+01
9.750e-01,2.865e+01
9.759e-01,3.369e+01
9.769e-01,3.916e+01
9.778e-01,4.487e+01
9.788e-01,5.052e+01
9.797e-01,5.576e+01
9.807e-01,6.019e+01
9.816e-01,6.341e+01
9.826e-01,6.507e+01
9.835e-01,6.496e+01
9.844e-01,6.300e+01
9.854e-01,5.932e+01
9.863e-01,5.417e+01
9.873e-01,4.798e+01
9.882e-01,4.120e+01
9.892e-01,3.430e+01
9.901e-01,2.771e+01
9.910e-01,2.172e+01
9.920e-01,1.655e+01
9.929e-01,1.226e+01
9.939e-01,8.846e+00
9.948e-01,6.230e+00
9.958e-01,4.290e+00
9.967e-01,2.896e+00
9.976e-01,1.922e+00
9.986e-01,1.258e+00
9.995e-01,8.144e-01
