transmittance,probability_density
6.656e-01,3.460e-16
6.672e-01,6.146e-16
6.689e-01,1.084e-15
6.706e-01,1.901e-15
6.723e-01,3.310e-15
6.739e-01,5.727e-15
6.756e-01,9.844e-15
6.773e-01,1.681e-14
6.790e-01,2.853e-14
6.807e-01,4.812e-14
6.823e-01,8.063e-14
6.840e-01,1.343e-13
6.857e-01,2.222e-13
6.874e-01,3.655e-13
6.890e-01,5.976e-13
6.907e-01,9.710e-13
6.924e-01,1.568e-12
6.941e-01,2.518e-12
6.957e-01,4.018e-12
6.974e-01,6.375e-12
6.991e-01,1.005e-11
7.008e-01,1.577e-11
7.024e-01,2.458e-11
7.041e-01,3.810e-11
7.058e-01,5.872e-11
7.075e-01,8.998e-11
7.092e-01,1.371e-10
7.108e-01,2.078e-10
7.125e-01,3.131e-10
7.142e-01,4.693e-10
7.159e-01,6.995e-10
7.175e-01,1.037e-09
7.192e-01,1.529e-09
7.209e-01,2.242e-09
7.226e-01,3.270e-09
7.242e-01,4.745e-09
7.259e-01,6.849e-09
7.276e-01,9.834e-09
7.293e-01,1.405e-08
7.309e-01,1.996e-08
7.326e-01,2.822e-08
7.343e-01,3.970e-08
7.360e-01,5.557e-08
7.376e-01,7.739e-08
7.393e-01,1.072e-07
7.410e-01,1.479e-07
7.427e-01,2.029e-07
7.444e-01,2.771e-07
7.460e-01,3.765e-07
7.477e-01,5.092e-07
7.494e-01,6.855e-07
7.511e-01,9.184e-07
7.527e-01,1.225e-06
7.544e-01,1.626e-06
7.561e-01,2.148e-06
7.578e-01,2.825e-06
7.594e-01,3.699e-06
7.611e-01,4.821e-06
7.628e-01,6.256e-06
7.645e-01,8.083e-06
7.661e-01,1.040e-05
7.678e-01,1.332e-05
7.695e-01,1.699e-05
7.712e-01,2.158e-05
7.729e-01,2.729e-05
7.745e-01,3.438e-05
7.762e-01,4.313e-05
7.779e-01,5.388e-05
7.796e-01,6.706e-05
7.812e-01,8.313e-05
7.829e-01,1.027e-04
7.846e-01,1.263e-04
7.863e-01,1.548e-04
7.879e-01,1.890e-04
7.896e-01,2.300e-04
7.913e-01,2.788e-04
7.930e-01,3.369e-04
7.946e-01,4.056e-04
7.963e-01,4.868e-04
7.980e-01,5.822e-04
7.997e-01,6.942e-04
8.014e-01,8.251e-04
8.030e-01,9.778e-04
8.047e-01,1.155e-03
8.064e-01,1.361e-03
8.081e-01,1.599e-03
8.097e-01,1.873e-03
8.114e-01,2.189e-03
8.131e-01,2.552e-03
8.148e-01,2.968e-03
8.164e-01,3.443e-03
8.181e-01,3.985e-03
8.198e-01,4.603e-03
8.215e-01,5.306e-03
8.231e-01,6.104e-03
8.248e-01,7.009e-03
8.265e-01,8.035e-03
8.282e-01,9.195e-03
8.298e-01,1.051e-02
8.315e-01,1.199e-02
8.332e-01,1.366e-02
8.349e-01,1.554e-02
8.366e-01,1.766e-02
8.382e-01,2.004e-02
8.399e-01,2.273e-02
8.416e-01,2.575e-02
8.433e-01,2.914e-02
8.449e-01,3.296e-02
8.466e-01,3.725e-02
8.483e-01,4.206e-02
8.500e-01,4.747e-02
8.516e-01,5.354e-02
8.533e-01,6.035e-02
8.550e-01,6.800e-02
8.567e-01,7.658e-02
8.583e-01,8.620e-02
8.600e-01,9.700e-02
8.617e-01,1.091e-01
8.634e-01,1.227e-01
8.651e-01,1.380e-01
8.667e-01,1.551e-01
8.684e-01,1.743e-01
8.701e-01,1.958e-01
8.718e-01,2.200e-01
8.734e-01,2.471e-01
8.751e-01,2.776e-01
8.768e-01,3.118e-01
8.785e-01,3.503e-01
8.801e-01,3.936e-01
8.818e-01,4.423e-01
8.835e-01,4.971e-01
8.852e-01,5.588e-01
8.868e-01,6.285e-01
8.885e-01,7.071e-01
8.902e-01,7.958e-01
8.919e-01,8.961e-01
8.936e-01,1.010e+00
8.952e-01,1.138e+00
8.969e-01,1.283e+00
8.986e-01,1.448e+00
9.003e-01,1.635e+00
9.019e-01,1.847e+00
9.036e-01,2.087e+00
9.053e-01,2.359e+00
9.070e-01,2.667e+00
9.086e-01,3.015e+00
9.103e-01,3.409e+00
9.120e-01,3.852e+00
9.137e-01,4.350e+00
9.153e-01,4.908e+00
9.170e-01,5.529e+00
9.187e-01,6.218e+00
9.204e-01,6.977e+00
9.220e-01,7.808e+00
9.237e-01,8.710e+00
9.254e-01,9.681e+00
9.271e-01,1.071e+01
9.288e-01,1.180e+01
9.304e-01,1.293e+01
9.321e-01,1.409e+01
9.338e-01,1.525e+01
9.355e-01,1.640e+01
9.371e-01,1.751e+01
9.388e-01,1.855e+01
9.405e-01,1.950e+01
9.422e-01,2.034e+01
9.438e-01,2.102e+01
9.455e-01,2.154e+01
9.472e-01,2.186e+01
9.489e-01,2.199e+01
9.505e-01,2.190e+01
9.522e-01,2.161e+01
9.539e-01,2.111e+01
9.556e-01,2.041e+01
9.573e-01,1.954e+01
9.589e-01,1.851e+01
9.606e-01,1.736e+01
9.623e-01,1.612e+01
9.640e-01,1.480e+01
9.656e-01,1.346e+01
9.673e-01,1.211e+01
9.690e-01,1.078e+01
9.707e-01,9.498e+00
9.723e-01,8.283e+00
9.740e-01,7.149e+00
9.757e-01,6.107e+00
9.774e-01,5.164e+00
9.790e-01,4.323e+00
9.807e-01,3.582e+00
9.824e-01,2.939e+00
9.841e-01,2.388e+00
9.858e-01,1.922e+00
9.874e-01,1.532e+00
9.891e-01,1.210e+00
9.908e-01,9.464e-01
9.925e-01,7.338e-01
9.941e-01,5.639e-01
9.958e-01,4.296e-01
9.975e-01,3.246e-01
9.992e-01,2.432e-01
