transmittance,probability_density
1.102e-03,3.036e-01
3.306e-03,1.009e+00
5.510e-03,1.763e+00
7.713e-03,2.547e+00
9.917e-03,3.352e+00
1.212e-02,4.174e+00
1.433e-02,5.011e+00
1.653e-02,5.859e+00
1.873e-02,6.718e+00
2.094e-02,7.586e+00
2.314e-02,8.463e+00
2.534e-02,9.348e+00
2.755e-02,1.024e+01
2.975e-02,1.114e+01
3.196e-02,1.204e+01
3.416e-02,1.295e+01
3.636e-02,1.387e+01
3.857e-02,1.479e+01
4.077e-02,1.572e+01
4.298e-02,1.665e+01
4.518e-02,1.759e+01
4.738e-02,1.853e+01
4.959e-02,1.947e+01
5.179e-02,2.042e+01
5.399e-02,2.137e+01
5.620e-02,2.232e+01
5.840e-02,2.328e+01
6.061e-02,2.424e+01
6.281e-02,2.521e+01
6.501e-02,2.618e+01
6.722e-02,2.715e+01
6.942e-02,2.812e+01
7.163e-02,2.910e+01
7.383e-02,0.000e+00
7.603e-02,0.000e+00
7.824e-02,0.000e+00
8.044e-02,0.000e+00
8.264e-02,0.000e+00
8.485e-02,0.000e+00
8.705e-02,0.000e+00
8.926e-02,0.000e+00
9.146e-02,0.000e+00
9.366e-02,0.000e+00
9.587e-02,0.000e+00
9.807e-02,0.000e+00
1.003e-01,0.000e+00
1.025e-01,0.000e+00
1.047e-01,0.000e+00
1.069e-01,0.000e+00
1.091e-01,0.000e+00
1.113e-01,0.000e+00
1.135e-01,0.000e+00
1.157e-01,0.000e+00
1.179e-01,0.000e+00
1.201e-01,0.000e+00
1.223e-01,0.000e+00
1.245e-01,0.000e+00
1.267e-01,0.000e+00
1.289e-01,0.000e+00
1.311e-01,0.000e+00
1.333e-01,0.000e+00
1.355e-01,0.000e+00
1.377e-01,0.000e+00
1.399e-01,0.000e+00
1.421e-01,0.000e+00
1.444e-01,0.000e+00
1.466e-01,0.000e+00
1.488e-01,0.000e+00
1.510e-01,0.000e+00
1.532e-01,0.000e+00
1.554e-01,0.000e+00
1.576e-01,0.000e+00
1.598e-01,0.000e+00
1.620e-01,0.000e+00
1.642e-01,0.000e+00
1.664e-01,0.000e+00
1.686e-01,0.000e+00
1.708e-01,0.000e+00
1.730e-01,0.000e+00
1.752e-01,0.000e+00
1.774e-01,0.000e+00
1.796e-01,0.000e+00
1.818e-01,0.000e+00
1.840e-01,0.000e+00
1.862e-01,0.000e+00
1.884e-01,0.000e+00
1.906e-01,0.000e+00
1.928e-01,0.000e+00
1.950e-01,0.000e+00
1.972e-01,0.000e+00
1.994e-01,0.000e+00
2.017e-01,0.000e+00
2.039e-01,0.000e+00
2.061e-01,0.000e+00
2.083e-01,0.000e+00
2.105e-01,0.000e+00
2.127e-01,0.000e+00
2.149e-01,0.000e+00
2.171e-01,0.000e+00
2.193e-01,0.000e+00
2.215e-01,0.000e+00
2.237e-01,0.000e+00
2.259e-01,0.000e+00
2.281e-01,0.000e+00
2.303e-01,0.000e+00
2.325e-01,0.000e+00
2.347e-01,0.000e+00
2.369e-01,0.000e+00
2.391e-01,0.000e+00
2.413e-01,0.000e+00
2.435e-01,0.000e+00
2.457e-01,0.000e+00
2.479e-01,0.000e+00
2.501e-01,0.000e+00
2.523e-01,0.000e+00
2.545e-01,0.000e+00
2.567e-01,0.000e+00
2.590e-01,0.000e+00
2.612e-01,0.000e+00
2.634e-01,0.000e+00
2.656e-01,0.000e+00
2.678e-01,0.000e+00
2.700e-01,0.000e+00
2.722e-01,0.000e+00
2.744e-01,0.000e+00
2.766e-01,0.000e+00
2.788e-01,0.000e+00
2.810e-01,0.000e+00
2.832e-01,0.000e+00
2.854e-01,0.000e+00
2.876e-01,0.000e+00
2.898e-01,0.000e+00
2.920e-01,0.000e+00
2.942e-01,0.000e+00
2.964e-01,0.000e+00
2.986e-01,0.000e+00
3.008e-01,0.000e+00
3.030e-01,0.000e+00
3.052e-01,0.000e+00
3.074e-01,0.000e+00
3.096e-01,0.000e+00
3.118e-01,0.000e+00
3.140e-01,0.000e+00
3.163e-01,0.000e+00
3.185e-01,0.000e+00
3.207e-01,0.000e+00
3.229e-01,0.000e+00
3.251e-01,0.000e+00
3.273e-01,0.000e+00
3.295e-01,0.000e+00
3.317e-01,0.000e+00
3.339e-01,0.000e+00
3.361e-01,0.000e+00
3.383e-01,0.000e+00
3.405e-01,0.000e+00
3.427e-01,0.000e+00
3.449e-01,0.000e+00
3.471e-01,0.000e+00
3.493e-01,0.000e+00
3.515e-01,0.000e+00
3.537e-01,0.000e+00
3.559e-01,0.000e+00
3.581e-01,0.000e+00
3.603e-01,0.000e+00
3.625e-01,0.000e+00
3.647e-01,0.000e+00
3.669e-01,0.000e+00
3.691e-01,0.000e+00
3.713e-01,0.000e+00
3.736e-01,0.000e+00
3.758e-01,0.000e+00
3.780e-01,0.000e+00
3.802e-01,0.000e+00
3.824e-01,0.000e+00
3.846e-01,0.000e+00
3.868e-01,0.000e+00
3.890e-01,0.000e+00
3.912e-01,0.000e+00
3.934e-01,0.000e+00
3.956e-01,0.000e+00
3.978e-01,0.000e+00
4.000e-01,0.000e+00
4.022e-01,0.000e+00
4.044e-01,0.000e+00
4.066e-01,0.000e+00
4.088e-01,0.000e+00
4.110e-01,0.000e+00
4.132e-01,0.000e+00
4.154e-01,0.000e+00
4.176e-01,0.000e+00
4.198e-01,0.000e+00
4.220e-01,0.000e+00
4.242e-01,0.000e+00
4.264e-01,0.000e+00
4.286e-01,0.000e+00
4.309e-01,0.000e+00
4.331e-01,0.000e+00
4.353e-01,0.000e+00
4.375e-01,0.000e+00
4.397e-01,0.000e+00
