transmittance,probability_density
2.500e-03,6.807e-03
7.500e-03,3.307e-02
1.250e-02,6.901e-02
1.750e-02,1.121e-01
2.250e-02,1.610e-01
2.750e-02,2.150e-01
3.250e-02,2.736e-01
3.750e-02,3.364e-01
4.250e-02,4.030e-01
4.750e-02,4.732e-01
5.250e-02,5.467e-01
5.750e-02,6.235e-01
6.250e-02,7.034e-01
6.750e-02,7.861e-01
7.250e-02,8.717e-01
7.750e-02,9.599e-01
8.250e-02,1.051e+00
8.750e-02,1.144e+00
9.250e-02,1.240e+00
9.750e-02,1.338e+00
1.025e-01,1.439e+00
1.075e-01,1.541e+00
1.125e-01,1.646e+00
1.175e-01,1.753e+00
1.225e-01,1.862e+00
1.275e-01,1.973e+00
1.325e-01,2.087e+00
1.375e-01,2.202e+00
1.425e-01,2.319e+00
1.475e-01,2.438e+00
1.525e-01,2.559e+00
1.575e-01,2.681e+00
1.625e-01,2.806e+00
1.675e-01,2.932e+00
1.725e-01,3.060e+00
1.775e-01,3.190e+00
1.825e-01,3.321e+00
1.875e-01,3.454e+00
1.925e-01,3.589e+00
1.975e-01,3.726e+00
2.025e-01,3.864e+00
2.075e-01,4.003e+00
2.125e-01,4.145e+00
2.175e-01,4.287e+00
2.225e-01,4.432e+00
2.275e-01,4.578e+00
2.325e-01,4.726e+00
2.375e-01,4.875e+00
2.425e-01,5.025e+00
2.475e-01,5.178e+00
2.525e-01,5.332e+00
2.575e-01,5.487e+00
2.625e-01,5.644e+00
2.675e-01,5.802e+00
2.725e-01,5.962e+00
2.775e-01,6.124e+00
2.825e-01,6.287e+00
2.875e-01,6.453e+00
2.925e-01,6.620e+00
2.975e-01,6.788e+00
3.025e-01,6.960e+00
3.075e-01,7.134e+00
3.125e-01,7.311e+00
3.175e-01,7.496e+00
3.225e-01,0.000e+00
3.275e-01,0.000e+00
3.325e-01,0.000e+00
3.375e-01,0.000e+00
3.425e-01,0.000e+00
3.475e-01,0.000e+00
3.525e-01,0.000e+00
3.575e-01,0.000e+00
3.625e-01,0.000e+00
3.675e-01,0.000e+00
3.725e-01,0.000e+00
3.775e-01,0.000e+00
3.825e-01,0.000e+00
3.875e-01,0.000e+00
3.925e-01,0.000e+00
3.975e-01,0.000e+00
4.025e-01,0.000e+00
4.075e-01,0.000e+00
4.125e-01,0.000e+00
4.175e-01,0.000e+00
4.225e-01,0.000e+00
4.275e-01,0.000e+00
4.325e-01,0.000e+00
4.375e-01,0.000e+00
4.425e-01,0.000e+00
4.475e-01,0.000e+00
4.525e-01,0.000e+00
4.575e-01,0.000e+00
4.625e-01,0.000e+00
4.675e-01,0.000e+00
4.725e-01,0.000e+00
4.775e-01,0.000e+00
4.825e-01,0.000e+00
4.875e-01,0.000e+00
4.925e-01,0.000e+00
4.975e-01,0.000e+00
5.025e-01,0.000e+00
5.075e-01,0.000e+00
5.125e-01,0.000e+00
5.175e-01,0.000e+00
5.225e-01,0.000e+00
5.275e-01,0.000e+00
5.325e-01,0.000e+00
5.375e-01,0.000e+00
5.425e-01,0.000e+00
5.475e-01,0.000e+00
5.525e-01,0.000e+00
5.575e-01,0.000e+00
5.625e-01,0.000e+00
5.675e-01,0.000e+00
5.725e-01,0.000e+00
5.775e-01,0.000e+00
5.825e-01,0.000e+00
5.875e-01,0.000e+00
5.925e-01,0.000e+00
5.975e-01,0.000e+00
6.025e-01,0.000e+00
6.075e-01,0.000e+00
6.125e-01,0.000e+00
6.175e-01,0.000e+00
6.225e-01,0.000e+00
6.275e-01,0.000e+00
6.325e-01,0.000e+00
6.375e-01,0.000e+00
6.425e-01,0.000e+00
6.475e-01,0.000e+00
6.525e-01,0.000e+00
6.575e-01,0.000e+00
6.625e-01,0.000e+00
6.675e-01,0.000e+00
6.725e-01,0.000e+00
6.775e-01,0.000e+00
6.825e-01,0.000e+00
6.875e-01,0.000e+00
6.925e-01,0.000e+00
6.975e-01,0.000e+00
7.025e-01,0.000e+00
7.075e-01,0.000e+00
7.125e-01,0.000e+00
7.175e-01,0.000e+00
7.225e-01,0.000e+00
7.275e-01,0.000e+00
7.325e-01,0.000e+00
7.375e-01,0.000e+00
7.425e-01,0.000e+00
7.475e-01,0.000e+00
7.525e-01,0.000e+00
7.575e-01,0.000e+00
7.625e-01,0.000e+00
7.675e-01,0.000e+00
7.725e-01,0.000e+00
7.775e-01,0.000e+00
7.825e-01,0.000e+00
7.875e-01,0.000e+00
7.925e-01,0.000e+00
7.975e-01,0.000e+00
8.025e-01,0.000e+00
8.075e-01,0.000e+00
8.125e-01,0.000e+00
8.175e-01,0.000e+00
8.225e-01,0.000e+00
8.275e-01,0.000e+00
8.325e-01,0.000e+00
8.375e-01,0.000e+00
8.425e-01,0.000e+00
8.475e-01,0.000e+00
8.525e-01,0.000e+00
8.575e-01,0.000e+00
8.625e-01,0.000e+00
8.675e-01,0.000e+00
8.725e-01,0.000e+00
8.775e-01,0.000e+00
8.825e-01,0.000e+00
8.875e-01,0.000e+00
8.925e-01,0.000e+00
8.975e-01,0.000e+00
9.025e-01,0.000e+00
9.075e-01,0.000e+00
9.125e-01,0.000e+00
9.175e-01,0.000e+00
9.225e-01,0.000e+00
9.275e-01,0.000e+00
9.325e-01,0.000e+00
9.375e-01,0.000e+00
9.425e-01,0.000e+00
9.475e-01,0.000e+00
9.525e-01,0.000e+00
9.575e-01,0.000e+00
9.625e-01,0.000e+00
9.675e-01,0.000e+00
9.725e-01,0.000e+00
9.775e-01,0.000e+00
9.825e-01,0.000e+00
9.875e-01,0.000e+00
9.925e-01,0.000e+00
9.975e-01,0.000e+00
