transmittance,probability_density
2.500e-03,1.468e-03
7.500e-03,8.646e-03
1.250e-02,1.975e-02
1.750e-02,3.406e-02
2.250e-02,5.119e-02
2.750e-02,7.088e-02
3.250e-02,9.297e-02
3.750e-02,1.173e-01
4.250e-02,1.438e-01
4.750e-02,1.723e-01
5.250e-02,2.028e-01
5.750e-02,2.352e-01
6.250e-02,2.694e-01
6.750e-02,3.054e-01
7.250e-02,3.432e-01
7.750e-02,3.826e-01
8.250e-02,4.238e-01
8.750e-02,4.665e-01
9.250e-02,5.109e-01
9.750e-02,5.568e-01
1.025e-01,6.043e-01
1.075e-01,6.532e-01
1.125e-01,7.037e-01
1.175e-01,7.557e-01
1.225e-01,8.091e-01
1.275e-01,8.639e-01
1.325e-01,9.201e-01
1.375e-01,9.778e-01
1.425e-01,1.037e+00
1.475e-01,1.097e+00
1.525e-01,1.159e+00
1.575e-01,1.222e+00
1.625e-01,1.287e+00
1.675e-01,1.352e+00
1.725e-01,1.419e+00
1.775e-01,1.488e+00
1.825e-01,1.557e+00
1.875e-01,1.628e+00
1.925e-01,1.701e+00
1.975e-01,1.774e+00
2.025e-01,1.849e+00
2.075e-01,1.925e+00
2.125e-01,2.002e+00
2.175e-01,2.080e+00
2.225e-01,2.160e+00
2.275e-01,2.241e+00
2.325e-01,2.323e+00
2.375e-01,2.407e+00
2.425e-01,2.491e+00
2.475e-01,2.577e+00
2.525e-01,2.664e+00
2.575e-01,2.752e+00
2.625e-01,2.842e+00
2.675e-01,2.932e+00
2.725e-01,3.024e+00
2.775e-01,3.117e+00
2.825e-01,3.211e+00
2.875e-01,3.306e+00
2.925e-01,3.403e+00
2.975e-01,3.501e+00
3.025e-01,3.600e+00
3.075e-01,3.700e+00
3.125e-01,3.802e+00
3.175e-01,3.904e+00
3.225e-01,4.008e+00
3.275e-01,4.113e+00
3.325e-01,4.220e+00
3.375e-01,4.327e+00
3.425e-01,4.436e+00
3.475e-01,4.547e+00
3.525e-01,4.658e+00
3.575e-01,4.771e+00
3.625e-01,4.886e+00
3.675e-01,5.002e+00
3.725e-01,5.119e+00
3.775e-01,5.238e+00
3.825e-01,5.359e+00
3.875e-01,5.482e+00
3.925e-01,5.607e+00
3.975e-01,5.734e+00
4.025e-01,5.865e+00
4.075e-01,6.000e+00
4.125e-01,6.141e+00
4.175e-01,6.297e+00
4.225e-01,0.000e+00
4.275e-01,0.000e+00
4.325e-01,0.000e+00
4.375e-01,0.000e+00
4.425e-01,0.000e+00
4.475e-01,0.000e+00
4.525e-01,0.000e+00
4.575e-01,0.000e+00
4.625e-01,0.000e+00
4.675e-01,0.000e+00
4.725e-01,0.000e+00
4.775e-01,0.000e+00
4.825e-01,0.000e+00
4.875e-01,0.000e+00
4.925e-01,0.000e+00
4.975e-01,0.000e+00
5.025e-01,0.000e+00
5.075e-01,0.000e+00
5.125e-01,0.000e+00
5.175e-01,0.000e+00
5.225e-01,0.000e+00
5.275e-01,0.000e+00
5.325e-01,0.000e+00
5.375e-01,0.000e+00
5.425e-01,0.000e+00
5.475e-01,0.000e+00
5.525e-01,0.000e+00
5.575e-01,0.000e+00
5.625e-01,0.000e+00
5.675e-01,0.000e+00
5.725e-01,0.000e+00
5.775e-01,0.000e+00
5.825e-01,0.000e+00
5.875e-01,0.000e+00
5.925e-01,0.000e+00
5.975e-01,0.000e+00
6.025e-01,0.000e+00
6.075e-01,0.000e+00
6.125e-01,0.000e+00
6.175e-01,0.000e+00
6.225e-01,0.000e+00
6.275e-01,0.000e+00
6.325e-01,0.000e+00
6.375e-01,0.000e+00
6.425e-01,0.000e+00
6.475e-01,0.000e+00
6.525e-01,0.000e+00
6.575e-01,0.000e+00
6.625e-01,0.000e+00
6.675e-01,0.000e+00
6.725e-01,0.000e+00
6.775e-01,0.000e+00
6.825e-01,0.000e+00
6.875e-01,0.000e+00
6.925e-01,0.000e+00
6.975e-01,0.000e+00
7.025e-01,0.000e+00
7.075e-01,0.000e+00
7.125e-01,0.000e+00
7.175e-01,0.000e+00
7.225e-01,0.000e+00
7.275e-01,0.000e+00
7.325e-01,0.000e+00
7.375e-01,0.000e+00
7.425e-01,0.000e+00
7.475e-01,0.000e+00
7.525e-01,0.000e+00
7.575e-01,0.000e+00
7.625e-01,0.000e+00
7.675e-01,0.000e+00
7.725e-01,0.000e+00
7.775e-01,0.000e+00
7.825e-01,0.000e+00
7.875e-01,0.000e+00
7.925e-01,0.000e+00
7.975e-01,0.000e+00
8.025e-01,0.000e+00
8.075e-01,0.000e+00
8.125e-01,0.000e+00
8.175e-01,0.000e+00
8.225e-01,0.000e+00
8.275e-01,0.000e+00
8.325e-01,0.000e+00
8.375e-01,0.000e+00
8.425e-01,0.000e+00
8.475e-01,0.000e+00
8.525e-01,0.000e+00
8.575e-01,0.000e+00
8.625e-01,0.000e+00
8.675e-01,0.000e+00
8.725e-01,0.000e+00
8.775e-01,0.000e+00
8.825e-01,0.000e+00
8.875e-01,0.000e+00
8.925e-01,0.000e+00
8.975e-01,0.000e+00
9.025e-01,0.000e+00
9.075e-01,0.000e+00
9.125e-01,0.000e+00
9.175e-01,0.000e+00
9.225e-01,0.000e+00
9.275e-01,0.000e+00
9.325e-01,0.000e+00
9.375e-01,0.000e+00
9.425e-01,0.000e+00
9.475e-01,0.000e+00
9.525e-01,0.000e+00
9.575e-01,0.000e+00
9.625e-01,0.000e+00
9.675e-01,0.000e+00
9.725e-01,0.000e+00
9.775e-01,0.000e+00
9.825e-01,0.000e+00
9.875e-01,0.000e+00
9.925e-01,0.000e+00
9.975e-01,0.000e+00
