transmittance,probability_density
2.183e-03,1.526e-02
6.549e-03,6.629e-02
1.091e-02,1.313e-01
1.528e-02,2.059e-01
1.965e-02,2.882e-01
2.401e-02,3.770e-01
2.838e-02,4.715e-01
3.274e-02,5.711e-01
3.711e-02,6.753e-01
4.148e-02,7.837e-01
4.584e-02,8.962e-01
5.021e-02,1.012e+00
5.457e-02,1.132e+00
5.894e-02,1.255e+00
6.331e-02,1.381e+00
6.767e-02,1.510e+00
7.204e-02,1.642e+00
7.640e-02,1.777e+00
8.077e-02,1.914e+00
8.514e-02,2.054e+00
8.950e-02,2.197e+00
9.387e-02,2.342e+00
9.823e-02,2.489e+00
1.026e-01,2.639e+00
1.070e-01,2.790e+00
1.113e-01,2.944e+00
1.157e-01,3.100e+00
1.201e-01,3.258e+00
1.244e-01,3.418e+00
1.288e-01,3.580e+00
1.332e-01,3.744e+00
1.375e-01,3.910e+00
1.419e-01,4.077e+00
1.463e-01,4.247e+00
1.506e-01,4.418e+00
1.550e-01,4.591e+00
1.594e-01,4.766e+00
1.637e-01,4.942e+00
1.681e-01,5.120e+00
1.725e-01,5.300e+00
1.768e-01,5.481e+00
1.812e-01,5.664e+00
1.856e-01,5.848e+00
1.899e-01,6.035e+00
1.943e-01,6.222e+00
1.986e-01,6.411e+00
2.030e-01,6.602e+00
2.074e-01,6.794e+00
2.117e-01,6.988e+00
2.161e-01,7.183e+00
2.205e-01,7.380e+00
2.248e-01,7.578e+00
2.292e-01,7.778e+00
2.336e-01,7.980e+00
2.379e-01,8.183e+00
2.423e-01,8.388e+00
2.467e-01,8.596e+00
2.510e-01,8.806e+00
2.554e-01,9.024e+00
2.598e-01,0.000e+00
2.641e-01,0.000e+00
2.685e-01,0.000e+00
2.729e-01,0.000e+00
2.772e-01,0.000e+00
2.816e-01,0.000e+00
2.860e-01,0.000e+00
2.903e-01,0.000e+00
2.947e-01,0.000e+00
2.991e-01,0.000e+00
3.034e-01,0.000e+00
3.078e-01,0.000e+00
3.122e-01,0.000e+00
3.165e-01,0.000e+00
3.209e-01,0.000e+00
3.253e-01,0.000e+00
3.296e-01,0.000e+00
3.340e-01,0.000e+00
3.384e-01,0.000e+00
3.427e-01,0.000e+00
3.471e-01,0.000e+00
3.515e-01,0.000e+00
3.558e-01,0.000e+00
3.602e-01,0.000e+00
3.646e-01,0.000e+00
3.689e-01,0.000e+00
3.733e-01,0.000e+00
3.777e-01,0.000e+00
3.820e-01,0.000e+00
3.864e-01,0.000e+00
3.907e-01,0.000e+00
3.951e-01,0.000e+00
3.995e-01,0.000e+00
4.038e-01,0.000e+00
4.082e-01,0.000e+00
4.126e-01,0.000e+00
4.169e-01,0.000e+00
4.213e-01,0.000e+00
4.257e-01,0.000e+00
4.300e-01,0.000e+00
4.344e-01,0.000e+00
4.388e-01,0.000e+00
4.431e-01,0.000e+00
4.475e-01,0.000e+00
4.519e-01,0.000e+00
4.562e-01,0.000e+00
4.606e-01,0.000e+00
4.650e-01,0.000e+00
4.693e-01,0.000e+00
4.737e-01,0.000e+00
4.781e-01,0.000e+00
4.824e-01,0.000e+00
4.868e-01,0.000e+00
4.912e-01,0.000e+00
4.955e-01,0.000e+00
4.999e-01,0.000e+00
5.043e-01,0.000e+00
5.086e-01,0.000e+00
5.130e-01,0.000e+00
5.174e-01,0.000e+00
5.217e-01,0.000e+00
5.261e-01,0.000e+00
5.305e-01,0.000e+00
5.348e-01,0.000e+00
5.392e-01,0.000e+00
5.436e-01,0.000e+00
5.479e-01,0.000e+00
5.523e-01,0.000e+00
5.567e-01,0.000e+00
5.610e-01,0.000e+00
5.654e-01,0.000e+00
5.697e-01,0.000e+00
5.741e-01,0.000e+00
5.785e-01,0.000e+00
5.828e-01,0.000e+00
5.872e-01,0.000e+00
5.916e-01,0.000e+00
5.959e-01,0.000e+00
6.003e-01,0.000e+00
6.047e-01,0.000e+00
6.090e-01,0.000e+00
6.134e-01,0.000e+00
6.178e-01,0.000e+00
6.221e-01,0.000e+00
6.265e-01,0.000e+00
6.309e-01,0.000e+00
6.352e-01,0.000e+00
6.396e-01,0.000e+00
6.440e-01,0.000e+00
6.483e-01,0.000e+00
6.527e-01,0.000e+00
6.571e-01,0.000e+00
6.614e-01,0.000e+00
6.658e-01,0.000e+00
6.702e-01,0.000e+00
6.745e-01,0.000e+00
6.789e-01,0.000e+00
6.833e-01,0.000e+00
6.876e-01,0.000e+00
6.920e-01,0.000e+00
6.964e-01,0.000e+00
7.007e-01,0.000e+00
7.051e-01,0.000e+00
7.095e-01,0.000e+00
7.138e-01,0.000e+00
7.182e-01,0.000e+00
7.226e-01,0.000e+00
7.269e-01,0.000e+00
7.313e-01,0.000e+00
7.357e-01,0.000e+00
7.400e-01,0.000e+00
7.444e-01,0.000e+00
7.488e-01,0.000e+00
7.531e-01,0.000e+00
7.575e-01,0.000e+00
7.618e-01,0.000e+00
7.662e-01,0.000e+00
7.706e-01,0.000e+00
7.749e-01,0.000e+00
7.793e-01,0.000e+00
7.837e-01,0.000e+00
7.880e-01,0.000e+00
7.924e-01,0.000e+00
7.968e-01,0.000e+00
8.011e-01,0.000e+00
8.055e-01,0.000e+00
8.099e-01,0.000e+00
8.142e-01,0.000e+00
8.186e-01,0.000e+00
8.230e-01,0.000e+00
8.273e-01,0.000e+00
8.317e-01,0.000e+00
8.361e-01,0.000e+00
8.404e-01,0.000e+00
8.448e-01,0.000e+00
8.492e-01,0.000e+00
8.535e-01,0.000e+00
8.579e-01,0.000e+00
8.623e-01,0.000e+00
8.666e-01,0.000e+00
8.710e-01,0.000e+00
