transmittance,probability_density
1.971e-03,3.634e-02
5.914e-03,1.433e-01
9.857e-03,2.714e-01
1.380e-02,4.132e-01
1.774e-02,5.656e-01
2.169e-02,7.268e-01
2.563e-02,8.956e-01
2.957e-02,1.071e+00
3.352e-02,1.252e+00
3.746e-02,1.439e+00
4.140e-02,1.631e+00
4.534e-02,1.827e+00
4.929e-02,2.028e+00
5.323e-02,2.233e+00
5.717e-02,2.442e+00
6.112e-02,2.654e+00
6.506e-02,2.870e+00
6.900e-02,3.089e+00
7.294e-02,3.312e+00
7.689e-02,3.537e+00
8.083e-02,3.765e+00
8.477e-02,3.996e+00
8.872e-02,4.230e+00
9.266e-02,4.467e+00
9.660e-02,4.706e+00
1.005e-01,4.948e+00
1.045e-01,5.192e+00
1.084e-01,5.438e+00
1.124e-01,5.687e+00
1.163e-01,5.937e+00
1.203e-01,6.190e+00
1.242e-01,6.446e+00
1.281e-01,6.703e+00
1.321e-01,6.962e+00
1.360e-01,7.223e+00
1.400e-01,7.486e+00
1.439e-01,7.752e+00
1.479e-01,8.019e+00
1.518e-01,8.287e+00
1.557e-01,8.558e+00
1.597e-01,8.831e+00
1.636e-01,9.105e+00
1.676e-01,9.381e+00
1.715e-01,9.659e+00
1.755e-01,9.939e+00
1.794e-01,1.022e+01
1.833e-01,1.050e+01
1.873e-01,1.079e+01
1.912e-01,1.108e+01
1.952e-01,1.137e+01
1.991e-01,0.000e+00
2.031e-01,0.000e+00
2.070e-01,0.000e+00
2.109e-01,0.000e+00
2.149e-01,0.000e+00
2.188e-01,0.000e+00
2.228e-01,0.000e+00
2.267e-01,0.000e+00
2.307e-01,0.000e+00
2.346e-01,0.000e+00
2.385e-01,0.000e+00
2.425e-01,0.000e+00
2.464e-01,0.000e+00
2.504e-01,0.000e+00
2.543e-01,0.000e+00
2.583e-01,0.000e+00
2.622e-01,0.000e+00
2.661e-01,0.000e+00
2.701e-01,0.000e+00
2.740e-01,0.000e+00
2.780e-01,0.000e+00
2.819e-01,0.000e+00
2.859e-01,0.000e+00
2.898e-01,0.000e+00
2.937e-01,0.000e+00
2.977e-01,0.000e+00
3.016e-01,0.000e+00
3.056e-01,0.000e+00
3.095e-01,0.000e+00
3.135e-01,0.000e+00
3.174e-01,0.000e+00
3.214e-01,0.000e+00
3.253e-01,0.000e+00
3.292e-01,0.000e+00
3.332e-01,0.000e+00
3.371e-01,0.000e+00
3.411e-01,0.000e+00
3.450e-01,0.000e+00
3.490e-01,0.000e+00
3.529e-01,0.000e+00
3.568e-01,0.000e+00
3.608e-01,0.000e+00
3.647e-01,0.000e+00
3.687e-01,0.000e+00
3.726e-01,0.000e+00
3.766e-01,0.000e+00
3.805e-01,0.000e+00
3.844e-01,0.000e+00
3.884e-01,0.000e+00
3.923e-01,0.000e+00
3.963e-01,0.000e+00
4.002e-01,0.000e+00
4.042e-01,0.000e+00
4.081e-01,0.000e+00
4.120e-01,0.000e+00
4.160e-01,0.000e+00
4.199e-01,0.000e+00
4.239e-01,0.000e+00
4.278e-01,0.000e+00
4.318e-01,0.000e+00
4.357e-01,0.000e+00
4.396e-01,0.000e+00
4.436e-01,0.000e+00
4.475e-01,0.000e+00
4.515e-01,0.000e+00
4.554e-01,0.000e+00
4.594e-01,0.000e+00
4.633e-01,0.000e+00
4.672e-01,0.000e+00
4.712e-01,0.000e+00
4.751e-01,0.000e+00
4.791e-01,0.000e+00
4.830e-01,0.000e+00
4.870e-01,0.000e+00
4.909e-01,0.000e+00
4.948e-01,0.000e+00
4.988e-01,0.000e+00
5.027e-01,0.000e+00
5.067e-01,0.000e+00
5.106e-01,0.000e+00
5.146e-01,0.000e+00
5.185e-01,0.000e+00
5.224e-01,0.000e+00
5.264e-01,0.000e+00
5.303e-01,0.000e+00
5.343e-01,0.000e+00
5.382e-01,0.000e+00
5.422e-01,0.000e+00
5.461e-01,0.000e+00
5.500e-01,0.000e+00
5.540e-01,0.000e+00
5.579e-01,0.000e+00
5.619e-01,0.000e+00
5.658e-01,0.000e+00
5.698e-01,0.000e+00
5.737e-01,0.000e+00
5.776e-01,0.000e+00
5.816e-01,0.000e+00
5.855e-01,0.000e+00
5.895e-01,0.000e+00
5.934e-01,0.000e+00
5.974e-01,0.000e+00
6.013e-01,0.000e+00
6.052e-01,0.000e+00
6.092e-01,0.000e+00
6.131e-01,0.000e+00
6.171e-01,0.000e+00
6.210e-01,0.000e+00
6.250e-01,0.000e+00
6.289e-01,0.000e+00
6.328e-01,0.000e+00
6.368e-01,0.000e+00
6.407e-01,0.000e+00
6.447e-01,0.000e+00
6.486e-01,0.000e+00
6.526e-01,0.000e+00
6.565e-01,0.000e+00
6.604e-01,0.000e+00
6.644e-01,0.000e+00
6.683e-01,0.000e+00
6.723e-01,0.000e+00
6.762e-01,0.000e+00
6.802e-01,0.000e+00
6.841e-01,0.000e+00
6.880e-01,0.000e+00
6.920e-01,0.000e+00
6.959e-01,0.000e+00
6.999e-01,0.000e+00
7.038e-01,0.000e+00
7.078e-01,0.000e+00
7.117e-01,0.000e+00
7.156e-01,0.000e+00
7.196e-01,0.000e+00
7.235e-01,0.000e+00
7.275e-01,0.000e+00
7.314e-01,0.000e+00
7.354e-01,0.000e+00
7.393e-01,0.000e+00
7.432e-01,0.000e+00
7.472e-01,0.000e+00
7.511e-01,0.000e+00
7.551e-01,0.000e+00
7.590e-01,0.000e+00
7.630e-01,0.000e+00
7.669e-01,0.000e+00
7.708e-01,0.000e+00
7.748e-01,0.000e+00
7.787e-01,0.000e+00
7.827e-01,0.000e+00
7.866e-01,0.000e+00
