transmittance,probability_density
2.500e-03,5.538e-05
7.500e-03,4.982e-04
1.250e-02,1.395e-03
1.750e-02,2.756e-03
2.250e-02,4.593e-03
2.750e-02,6.914e-03
3.250e-02,9.728e-03
3.750e-02,1.304e-02
4.250e-02,1.686e-02
4.750e-02,2.120e-02
5.250e-02,2.605e-02
5.750e-02,3.143e-02
6.250e-02,3.735e-02
6.750e-02,4.380e-02
7.250e-02,5.080e-02
7.750e-02,5.835e-02
8.250e-02,6.646e-02
8.750e-02,7.513e-02
9.250e-02,8.436e-02
9.750e-02,9.417e-02
1.025e-01,1.046e-01
1.075e-01,1.155e-01
1.125e-01,1.271e-01
1.175e-01,1.392e-01
1.225e-01,1.520e-01
1.275e-01,1.653e-01
1.325e-01,1.793e-01
1.375e-01,1.939e-01
1.425e-01,2.091e-01
1.475e-01,2.249e-01
1.525e-01,2.413e-01
1.575e-01,2.584e-01
1.625e-01,2.761e-01
1.675e-01,2.945e-01
1.725e-01,3.135e-01
1.775e-01,3.332e-01
1.825e-01,3.535e-01
1.875e-01,3.745e-01
1.925e-01,3.962e-01
1.975e-01,4.185e-01
2.025e-01,4.416e-01
2.075e-01,4.653e-01
2.125e-01,4.897e-01
2.175e-01,5.148e-01
2.225e-01,5.406e-01
2.275e-01,5.671e-01
2.325e-01,5.943e-01
2.375e-01,6.222e-01
2.425e-01,6.509e-01
2.475e-01,6.803e-01
2.525e-01,7.104e-01
2.575e-01,7.413e-01
2.625e-01,7.729e-01
2.675e-01,8.053e-01
2.725e-01,8.384e-01
2.775e-01,8.723e-01
2.825e-01,9.070e-01
2.875e-01,9.424e-01
2.925e-01,9.787e-01
2.975e-01,1.016e+00
3.025e-01,1.054e+00
3.075e-01,1.092e+00
3.125e-01,1.132e+00
3.175e-01,1.172e+00
3.225e-01,1.213e+00
3.275e-01,1.255e+00
3.325e-01,1.298e+00
3.375e-01,1.341e+00
3.425e-01,1.386e+00
3.475e-01,1.431e+00
3.525e-01,1.477e+00
3.575e-01,1.524e+00
3.625e-01,1.572e+00
3.675e-01,1.621e+00
3.725e-01,1.671e+00
3.775e-01,1.722e+00
3.825e-01,1.774e+00
3.875e-01,1.826e+00
3.925e-01,1.880e+00
3.975e-01,1.934e+00
4.025e-01,1.990e+00
4.075e-01,2.046e+00
4.125e-01,2.104e+00
4.175e-01,2.162e+00
4.225e-01,2.222e+00
4.275e-01,2.283e+00
4.325e-01,2.344e+00
4.375e-01,2.407e+00
4.425e-01,2.471e+00
4.475e-01,2.536e+00
4.525e-01,2.602e+00
4.575e-01,2.669e+00
4.625e-01,2.738e+00
4.675e-01,2.807e+00
4.725e-01,2.878e+00
4.775e-01,2.950e+00
4.825e-01,3.024e+00
4.875e-01,3.099e+00
4.925e-01,3.175e+00
4.975e-01,3.252e+00
5.025e-01,3.331e+00
5.075e-01,3.412e+00
5.125e-01,3.494e+00
5.175e-01,3.577e+00
5.225e-01,3.662e+00
5.275e-01,3.749e+00
5.325e-01,3.838e+00
5.375e-01,3.929e+00
5.425e-01,4.022e+00
5.475e-01,4.117e+00
5.525e-01,4.214e+00
5.575e-01,4.314e+00
5.625e-01,4.417e+00
5.675e-01,4.523e+00
5.725e-01,4.632e+00
5.775e-01,4.746e+00
5.825e-01,4.865e+00
5.875e-01,4.991e+00
5.925e-01,5.125e+00
5.975e-01,5.271e+00
6.025e-01,5.437e+00
6.075e-01,5.648e+00
6.125e-01,6.105e+00
6.175e-01,0.000e+00
6.225e-01,0.000e+00
6.275e-01,0.000e+00
6.325e-01,0.000e+00
6.375e-01,0.000e+00
6.425e-01,0.000e+00
6.475e-01,0.000e+00
6.525e-01,0.000e+00
6.575e-01,0.000e+00
6.625e-01,0.000e+00
6.675e-01,0.000e+00
6.725e-01,0.000e+00
6.775e-01,0.000e+00
6.825e-01,0.000e+00
6.875e-01,0.000e+00
6.925e-01,0.000e+00
6.975e-01,0.000e+00
7.025e-01,0.000e+00
7.075e-01,0.000e+00
7.125e-01,0.000e+00
7.175e-01,0.000e+00
7.225e-01,0.000e+00
7.275e-01,0.000e+00
7.325e-01,0.000e+00
7.375e-01,0.000e+00
7.425e-01,0.000e+00
7.475e-01,0.000e+00
7.525e-01,0.000e+00
7.575e-01,0.000e+00
7.625e-01,0.000e+00
7.675e-01,0.000e+00
7.725e-01,0.000e+00
7.775e-01,0.000e+00
7.825e-01,0.000e+00
7.875e-01,0.000e+00
7.925e-01,0.000e+00
7.975e-01,0.000e+00
8.025e-01,0.000e+00
8.075e-01,0.000e+00
8.125e-01,0.000e+00
8.175e-01,0.000e+00
8.225e-01,0.000e+00
8.275e-01,0.000e+00
8.325e-01,0.000e+00
8.375e-01,0.000e+00
8.425e-01,0.000e+00
8.475e-01,0.000e+00
8.525e-01,0.000e+00
8.575e-01,0.000e+00
8.625e-01,0.000e+00
8.675e-01,0.000e+00
8.725e-01,0.000e+00
8.775e-01,0.000e+00
8.825e-01,0.000e+00
8.875e-01,0.000e+00
8.925e-01,0.000e+00
8.975e-01,0.000e+00
9.025e-01,0.000e+00
9.075e-01,0.000e+00
9.125e-01,0.000e+00
9.175e-01,0.000e+00
9.225e-01,0.000e+00
9.275e-01,0.000e+00
9.325e-01,0.000e+00
9.375e-01,0.000e+00
9.425e-01,0.000e+00
9.475e-01,0.000e+00
9.525e-01,0.000e+00
9.575e-01,0.000e+00
9.625e-01,0.000e+00
9.675e-01,0.000e+00
9.725e-01,0.000e+00
9.775e-01,0.000e+00
9.825e-01,0.000e+00
9.875e-01,0.000e+00
9.925e-01,0.000e+00
9.975e-01,0.000e+00
