transmittance,probability_density
2.500e-03,3.162e-05
7.500e-03,3.044e-04
1.250e-02,8.809e-04
1.750e-02,1.781e-03
2.250e-02,3.019e-03
2.750e-02,4.609e-03
3.250e-02,6.563e-03
3.750e-02,8.890e-03
4.250e-02,1.160e-02
4.750e-02,1.470e-02
5.250e-02,1.821e-02
5.750e-02,2.212e-02
6.250e-02,2.645e-02
6.750e-02,3.121e-02
7.250e-02,3.640e-02
7.750e-02,4.203e-02
8.250e-02,4.811e-02
8.750e-02,5.464e-02
9.250e-02,6.163e-02
9.750e-02,6.909e-02
1.025e-01,7.703e-02
1.075e-01,8.544e-02
1.125e-01,9.435e-02
1.175e-01,1.037e-01
1.225e-01,1.136e-01
1.275e-01,1.240e-01
1.325e-01,1.350e-01
1.375e-01,1.464e-01
1.425e-01,1.584e-01
1.475e-01,1.708e-01
1.525e-01,1.839e-01
1.575e-01,1.974e-01
1.625e-01,2.116e-01
1.675e-01,2.262e-01
1.725e-01,2.415e-01
1.775e-01,2.573e-01
1.825e-01,2.737e-01
1.875e-01,2.906e-01
1.925e-01,3.082e-01
1.975e-01,3.263e-01
2.025e-01,3.450e-01
2.075e-01,3.644e-01
2.125e-01,3.843e-01
2.175e-01,4.049e-01
2.225e-01,4.261e-01
2.275e-01,4.479e-01
2.325e-01,4.704e-01
2.375e-01,4.935e-01
2.425e-01,5.173e-01
2.475e-01,5.417e-01
2.525e-01,5.667e-01
2.575e-01,5.925e-01
2.625e-01,6.189e-01
2.675e-01,6.460e-01
2.725e-01,6.738e-01
2.775e-01,7.023e-01
2.825e-01,7.315e-01
2.875e-01,7.614e-01
2.925e-01,7.920e-01
2.975e-01,8.234e-01
3.025e-01,8.555e-01
3.075e-01,8.883e-01
3.125e-01,9.219e-01
3.175e-01,9.562e-01
3.225e-01,9.914e-01
3.275e-01,1.027e+00
3.325e-01,1.064e+00
3.375e-01,1.101e+00
3.425e-01,1.140e+00
3.475e-01,1.179e+00
3.525e-01,1.219e+00
3.575e-01,1.259e+00
3.625e-01,1.301e+00
3.675e-01,1.343e+00
3.725e-01,1.386e+00
3.775e-01,1.431e+00
3.825e-01,1.476e+00
3.875e-01,1.521e+00
3.925e-01,1.568e+00
3.975e-01,1.616e+00
4.025e-01,1.665e+00
4.075e-01,1.714e+00
4.125e-01,1.765e+00
4.175e-01,1.816e+00
4.225e-01,1.869e+00
4.275e-01,1.922e+00
4.325e-01,1.977e+00
4.375e-01,2.032e+00
4.425e-01,2.089e+00
4.475e-01,2.146e+00
4.525e-01,2.205e+00
4.575e-01,2.264e+00
4.625e-01,2.325e+00
4.675e-01,2.387e+00
4.725e-01,2.450e+00
4.775e-01,2.515e+00
4.825e-01,2.580e+00
4.875e-01,2.647e+00
4.925e-01,2.715e+00
4.975e-01,2.784e+00
5.025e-01,2.855e+00
5.075e-01,2.927e+00
5.125e-01,3.000e+00
5.175e-01,3.075e+00
5.225e-01,3.151e+00
5.275e-01,3.229e+00
5.325e-01,3.308e+00
5.375e-01,3.389e+00
5.425e-01,3.472e+00
5.475e-01,3.557e+00
5.525e-01,3.643e+00
5.575e-01,3.731e+00
5.625e-01,3.822e+00
5.675e-01,3.915e+00
5.725e-01,4.010e+00
5.775e-01,4.107e+00
5.825e-01,4.207e+00
5.875e-01,4.311e+00
5.925e-01,4.418e+00
5.975e-01,4.528e+00
6.025e-01,4.643e+00
6.075e-01,4.763e+00
6.125e-01,4.890e+00
6.175e-01,5.025e+00
6.225e-01,5.170e+00
6.275e-01,5.333e+00
6.325e-01,5.524e+00
6.375e-01,5.785e+00
6.425e-01,0.000e+00
6.475e-01,0.000e+00
6.525e-01,0.000e+00
6.575e-01,0.000e+00
6.625e-01,0.000e+00
6.675e-01,0.000e+00
6.725e-01,0.000e+00
6.775e-01,0.000e+00
6.825e-01,0.000e+00
6.875e-01,0.000e+00
6.925e-01,0.000e+00
6.975e-01,0.000e+00
7.025e-01,0.000e+00
7.075e-01,0.000e+00
7.125e-01,0.000e+00
7.175e-01,0.000e+00
7.225e-01,0.000e+00
7.275e-01,0.000e+00
7.325e-01,0.000e+00
7.375e-01,0.000e+00
7.425e-01,0.000e+00
7.475e-01,0.000e+00
7.525e-01,0.000e+00
7.575e-01,0.000e+00
7.625e-01,0.000e+00
7.675e-01,0.000e+00
7.725e-01,0.000e+00
7.775e-01,0.000e+00
7.825e-01,0.000e+00
7.875e-01,0.000e+00
7.925e-01,0.000e+00
7.975e-01,0.000e+00
8.025e-01,0.000e+00
8.075e-01,0.000e+00
8.125e-01,0.000e+00
8.175e-01,0.000e+00
8.225e-01,0.000e+00
8.275e-01,0.000e+00
8.325e-01,0.000e+00
8.375e-01,0.000e+00
8.425e-01,0.000e+00
8.475e-01,0.000e+00
8.525e-01,0.000e+00
8.575e-01,0.000e+00
8.625e-01,0.000e+00
8.675e-01,0.000e+00
8.725e-01,0.000e+00
8.775e-01,0.000e+00
8.825e-01,0.000e+00
8.875e-01,0.000e+00
8.925e-01,0.000e+00
8.975e-01,0.000e+00
9.025e-01,0.000e+00
9.075e-01,0.000e+00
9.125e-01,0.000e+00
9.175e-01,0.000e+00
9.225e-01,0.000e+00
9.275e-01,0.000e+00
9.325e-01,0.000e+00
9.375e-01,0.000e+00
9.425e-01,0.000e+00
9.475e-01,0.000e+00
9.525e-01,0.000e+00
9.575e-01,0.000e+00
9.625e-01,0.000e+00
9.675e-01,0.000e+00
9.725e-01,0.000e+00
9.775e-01,0.000e+00
9.825e-01,0.000e+00
9.875e-01,0.000e+00
9.925e-01,0.000e+00
9.975e-01,0.000e+00
