transmittance,probability_density
2.500e-03,1.807e-05
7.500e-03,1.856e-04
1.250e-02,5.547e-04
1.750e-02,1.146e-03
2.250e-02,1.977e-03
2.750e-02,3.060e-03
3.250e-02,4.408e-03
3.750e-02,6.033e-03
4.250e-02,7.944e-03
4.750e-02,1.015e-02
5.250e-02,1.267e-02
5.750e-02,1.549e-02
6.250e-02,1.865e-02
6.750e-02,2.213e-02
7.250e-02,2.596e-02
7.750e-02,3.013e-02
8.250e-02,3.465e-02
8.750e-02,3.955e-02
9.250e-02,4.481e-02
9.750e-02,5.045e-02
1.025e-01,5.647e-02
1.075e-01,6.289e-02
1.125e-01,6.970e-02
1.175e-01,7.693e-02
1.225e-01,8.456e-02
1.275e-01,9.262e-02
1.325e-01,1.011e-01
1.375e-01,1.100e-01
1.425e-01,1.194e-01
1.475e-01,1.292e-01
1.525e-01,1.394e-01
1.575e-01,1.502e-01
1.625e-01,1.613e-01
1.675e-01,1.730e-01
1.725e-01,1.852e-01
1.775e-01,1.978e-01
1.825e-01,2.109e-01
1.875e-01,2.245e-01
1.925e-01,2.387e-01
1.975e-01,2.533e-01
2.025e-01,2.685e-01
2.075e-01,2.842e-01
2.125e-01,3.004e-01
2.175e-01,3.172e-01
2.225e-01,3.345e-01
2.275e-01,3.524e-01
2.325e-01,3.709e-01
2.375e-01,3.899e-01
2.425e-01,4.095e-01
2.475e-01,4.297e-01
2.525e-01,4.504e-01
2.575e-01,4.718e-01
2.625e-01,4.938e-01
2.675e-01,5.164e-01
2.725e-01,5.396e-01
2.775e-01,5.635e-01
2.825e-01,5.879e-01
2.875e-01,6.131e-01
2.925e-01,6.389e-01
2.975e-01,6.653e-01
3.025e-01,6.924e-01
3.075e-01,7.202e-01
3.125e-01,7.487e-01
3.175e-01,7.779e-01
3.225e-01,8.078e-01
3.275e-01,8.383e-01
3.325e-01,8.697e-01
3.375e-01,9.017e-01
3.425e-01,9.345e-01
3.475e-01,9.680e-01
3.525e-01,1.002e+00
3.575e-01,1.037e+00
3.625e-01,1.073e+00
3.675e-01,1.110e+00
3.725e-01,1.147e+00
3.775e-01,1.186e+00
3.825e-01,1.225e+00
3.875e-01,1.265e+00
3.925e-01,1.305e+00
3.975e-01,1.347e+00
4.025e-01,1.389e+00
4.075e-01,1.433e+00
4.125e-01,1.477e+00
4.175e-01,1.522e+00
4.225e-01,1.568e+00
4.275e-01,1.615e+00
4.325e-01,1.663e+00
4.375e-01,1.712e+00
4.425e-01,1.762e+00
4.475e-01,1.813e+00
4.525e-01,1.865e+00
4.575e-01,1.918e+00
4.625e-01,1.972e+00
4.675e-01,2.027e+00
4.725e-01,2.083e+00
4.775e-01,2.141e+00
4.825e-01,2.199e+00
4.875e-01,2.259e+00
4.925e-01,2.319e+00
4.975e-01,2.381e+00
5.025e-01,2.445e+00
5.075e-01,2.509e+00
5.125e-01,2.575e+00
5.175e-01,2.642e+00
5.225e-01,2.710e+00
5.275e-01,2.780e+00
5.325e-01,2.852e+00
5.375e-01,2.924e+00
5.425e-01,2.999e+00
5.475e-01,3.075e+00
5.525e-01,3.152e+00
5.575e-01,3.231e+00
5.625e-01,3.313e+00
5.675e-01,3.395e+00
5.725e-01,3.480e+00
5.775e-01,3.567e+00
5.825e-01,3.656e+00
5.875e-01,3.748e+00
5.925e-01,3.841e+00
5.975e-01,3.938e+00
6.025e-01,4.037e+00
6.075e-01,4.139e+00
6.125e-01,4.244e+00
6.175e-01,4.353e+00
6.225e-01,4.467e+00
6.275e-01,4.585e+00
6.325e-01,4.709e+00
6.375e-01,4.839e+00
6.425e-01,4.978e+00
6.475e-01,5.129e+00
6.525e-01,5.295e+00
6.575e-01,5.486e+00
6.625e-01,5.728e+00
6.675e-01,6.138e+00
6.725e-01,0.000e+00
6.775e-01,0.000e+00
6.825e-01,0.000e+00
6.875e-01,0.000e+00
6.925e-01,0.000e+00
6.975e-01,0.000e+00
7.025e-01,0.000e+00
7.075e-01,0.000e+00
7.125e-01,0.000e+00
7.175e-01,0.000e+00
7.225e-01,0.000e+00
7.275e-01,0.000e+00
7.325e-01,0.000e+00
7.375e-01,0.000e+00
7.425e-01,0.000e+00
7.475e-01,0.000e+00
7.525e-01,0.000e+00
7.575e-01,0.000e+00
7.625e-01,0.000e+00
7.675e-01,0.000e+00
7.725e-01,0.000e+00
7.775e-01,0.000e+00
7.825e-01,0.000e+00
7.875e-01,0.000e+00
7.925e-01,0.000e+00
7.975e-01,0.000e+00
8.025e-01,0.000e+00
8.075e-01,0.000e+00
8.125e-01,0.000e+00
8.175e-01,0.000e+00
8.225e-01,0.000e+00
8.275e-01,0.000e+00
8.325e-01,0.000e+00
8.375e-01,0.000e+00
8.425e-01,0.000e+00
8.475e-01,0.000e+00
8.525e-01,0.000e+00
8.575e-01,0.000e+00
8.625e-01,0.000e+00
8.675e-01,0.000e+00
8.725e-01,0.000e+00
8.775e-01,0.000e+00
8.825e-01,0.000e+00
8.875e-01,0.000e+00
8.925e-01,0.000e+00
8.975e-01,0.000e+00
9.025e-01,0.000e+00
9.075e-01,0.000e+00
9.125e-01,0.000e+00
9.175e-01,0.000e+00
9.225e-01,0.000e+00
9.275e-01,0.000e+00
9.325e-01,0.000e+00
9.375e-01,0.000e+00
9.425e-01,0.000e+00
9.475e-01,0.000e+00
9.525e-01,0.000e+00
9.575e-01,0.000e+00
9.625e-01,0.000e+00
9.675e-01,0.000e+00
9.725e-01,0.000e+00
9.775e-01,0.000e+00
9.825e-01,0.000e+00
9.875e-01,0.000e+00
9.925e-01,0.000e+00
9.975e-01,0.000e+00
