transmittance,probability_density
2.500e-03,1.690e-04
7.500e-03,1.320e-03
1.250e-02,3.452e-03
1.750e-02,6.515e-03
2.250e-02,1.048e-02
2.750e-02,1.533e-02
3.250e-02,2.106e-02
3.750e-02,2.765e-02
4.250e-02,3.510e-02
4.750e-02,4.340e-02
5.250e-02,5.255e-02
5.750e-02,6.254e-02
6.250e-02,7.337e-02
6.750e-02,8.504e-02
7.250e-02,9.754e-02
7.750e-02,1.109e-01
8.250e-02,1.251e-01
8.750e-02,1.401e-01
9.250e-02,1.559e-01
9.750e-02,1.726e-01
1.025e-01,1.901e-01
1.075e-01,2.084e-01
1.125e-01,2.276e-01
1.175e-01,2.475e-01
1.225e-01,2.684e-01
1.275e-01,2.900e-01
1.325e-01,3.125e-01
1.375e-01,3.359e-01
1.425e-01,3.600e-01
1.475e-01,3.850e-01
1.525e-01,4.109e-01
1.575e-01,4.375e-01
1.625e-01,4.651e-01
1.675e-01,4.934e-01
1.725e-01,5.226e-01
1.775e-01,5.527e-01
1.825e-01,5.836e-01
1.875e-01,6.154e-01
1.925e-01,6.480e-01
1.975e-01,6.814e-01
2.025e-01,7.158e-01
2.075e-01,7.510e-01
2.125e-01,7.870e-01
2.175e-01,8.239e-01
2.225e-01,8.617e-01
2.275e-01,9.003e-01
2.325e-01,9.398e-01
2.375e-01,9.802e-01
2.425e-01,1.022e+00
2.475e-01,1.064e+00
2.525e-01,1.107e+00
2.575e-01,1.151e+00
2.625e-01,1.195e+00
2.675e-01,1.241e+00
2.725e-01,1.288e+00
2.775e-01,1.335e+00
2.825e-01,1.384e+00
2.875e-01,1.433e+00
2.925e-01,1.483e+00
2.975e-01,1.535e+00
3.025e-01,1.587e+00
3.075e-01,1.640e+00
3.125e-01,1.694e+00
3.175e-01,1.749e+00
3.225e-01,1.805e+00
3.275e-01,1.861e+00
3.325e-01,1.919e+00
3.375e-01,1.978e+00
3.425e-01,2.038e+00
3.475e-01,2.098e+00
3.525e-01,2.160e+00
3.575e-01,2.223e+00
3.625e-01,2.286e+00
3.675e-01,2.351e+00
3.725e-01,2.417e+00
3.775e-01,2.484e+00
3.825e-01,2.552e+00
3.875e-01,2.620e+00
3.925e-01,2.690e+00
3.975e-01,2.761e+00
4.025e-01,2.834e+00
4.075e-01,2.907e+00
4.125e-01,2.981e+00
4.175e-01,3.057e+00
4.225e-01,3.134e+00
4.275e-01,3.211e+00
4.325e-01,3.291e+00
4.375e-01,3.371e+00
4.425e-01,3.452e+00
4.475e-01,3.535e+00
4.525e-01,3.620e+00
4.575e-01,3.705e+00
4.625e-01,3.792e+00
4.675e-01,3.881e+00
4.725e-01,3.971e+00
4.775e-01,4.062e+00
4.825e-01,4.156e+00
4.875e-01,4.251e+00
4.925e-01,4.347e+00
4.975e-01,4.446e+00
5.025e-01,4.548e+00
5.075e-01,4.651e+00
5.125e-01,4.757e+00
5.175e-01,4.867e+00
5.225e-01,4.980e+00
5.275e-01,5.098e+00
5.325e-01,5.222e+00
5.375e-01,5.355e+00
5.425e-01,5.503e+00
5.475e-01,5.684e+00
5.525e-01,0.000e+00
5.575e-01,0.000e+00
5.625e-01,0.000e+00
5.675e-01,0.000e+00
5.725e-01,0.000e+00
5.775e-01,0.000e+00
5.825e-01,0.000e+00
5.875e-01,0.000e+00
5.925e-01,0.000e+00
5.975e-01,0.000e+00
6.025e-01,0.000e+00
6.075e-01,0.000e+00
6.125e-01,0.000e+00
6.175e-01,0.000e+00
6.225e-01,0.000e+00
6.275e-01,0.000e+00
6.325e-01,0.000e+00
6.375e-01,0.000e+00
6.425e-01,0.000e+00
6.475e-01,0.000e+00
6.525e-01,0.000e+00
6.575e-01,0.000e+00
6.625e-01,0.000e+00
6.675e-01,0.000e+00
6.725e-01,0.000e+00
6.775e-01,0.000e+00
6.825e-01,0.000e+00
6.875e-01,0.000e+00
6.925e-01,0.000e+00
6.975e-01,0.000e+00
7.025e-01,0.000e+00
7.075e-01,0.000e+00
7.125e-01,0.000e+00
7.175e-01,0.000e+00
7.225e-01,0.000e+00
7.275e-01,0.000e+00
7.325e-01,0.000e+00
7.375e-01,0.000e+00
7.425e-01,0.000e+00
7.475e-01,0.000e+00
7.525e-01,0.000e+00
7.575e-01,0.000e+00
7.625e-01,0.000e+00
7.675e-01,0.000e+00
7.725e-01,0.000e+00
7.775e-01,0.000e+00
7.825e-01,0.000e+00
7.875e-01,0.000e+00
7.925e-01,0.000e+00
7.975e-01,0.000e+00
8.025e-01,0.000e+00
8.075e-01,0.000e+00
8.125e-01,0.000e+00
8.175e-01,0.000e+00
8.225e-01,0.000e+00
8.275e-01,0.000e+00
8.325e-01,0.000e+00
8.375e-01,0.000e+00
8.425e-01,0.000e+00
8.475e-01,0.000e+00
8.525e-01,0.000e+00
8.575e-01,0.000e+00
8.625e-01,0.000e+00
8.675e-01,0.000e+00
8.725e-01,0.000e+00
8.775e-01,0.000e+00
8.825e-01,0.000e+00
8.875e-01,0.000e+00
8.925e-01,0.000e+00
8.975e-01,0.000e+00
9.025e-01,0.000e+00
9.075e-01,0.000e+00
9.125e-01,0.000e+00
9.175e-01,0.000e+00
9.225e-01,0.000e+00
9.275e-01,0.000e+00
9.325e-01,0.000e+00
9.375e-01,0.000e+00
9.425e-01,0.000e+00
9.475e-01,0.000e+00
9.525e-01,0.000e+00
9.575e-01,0.000e+00
9.625e-01,0.000e+00
9.675e-01,0.000e+00
9.725e-01,0.000e+00
9.775e-01,0.000e+00
9.825e-01,0.000e+00
9.875e-01,0.000e+00
9.925e-01,0.000e+00
9.975e-01,0.000e+00
