transmittance,probability_density
2.500e-03,5.304e-07
7.500e-03,8.719e-06
1.250e-02,3.282e-05
1.750e-02,7.936e-05
2.250e-02,1.543e-04
2.750e-02,2.634e-04
3.250e-02,4.122e-04
3.750e-02,6.062e-04
4.250e-02,8.509e-04
4.750e-02,1.152e-03
5.250e-02,1.514e-03
5.750e-02,1.943e-03
6.250e-02,2.444e-03
6.750e-02,3.023e-03
7.250e-02,3.685e-03
7.750e-02,4.436e-03
8.250e-02,5.281e-03
8.750e-02,6.226e-03
9.250e-02,7.277e-03
9.750e-02,8.439e-03
1.025e-01,9.719e-03
1.075e-01,1.112e-02
1.125e-01,1.265e-02
1.175e-01,1.432e-02
1.225e-01,1.613e-02
1.275e-01,1.808e-02
1.325e-01,2.019e-02
1.375e-01,2.246e-02
1.425e-01,2.489e-02
1.475e-01,2.750e-02
1.525e-01,3.028e-02
1.575e-01,3.325e-02
1.625e-01,3.641e-02
1.675e-01,3.978e-02
1.725e-01,4.334e-02
1.775e-01,4.713e-02
1.825e-01,5.113e-02
1.875e-01,5.536e-02
1.925e-01,5.982e-02
1.975e-01,6.453e-02
2.025e-01,6.948e-02
2.075e-01,7.469e-02
2.125e-01,8.017e-02
2.175e-01,8.592e-02
2.225e-01,9.195e-02
2.275e-01,9.827e-02
2.325e-01,1.049e-01
2.375e-01,1.118e-01
2.425e-01,1.191e-01
2.475e-01,1.266e-01
2.525e-01,1.345e-01
2.575e-01,1.427e-01
2.625e-01,1.513e-01
2.675e-01,1.603e-01
2.725e-01,1.696e-01
2.775e-01,1.793e-01
2.825e-01,1.893e-01
2.875e-01,1.998e-01
2.925e-01,2.107e-01
2.975e-01,2.220e-01
3.025e-01,2.337e-01
3.075e-01,2.459e-01
3.125e-01,2.585e-01
3.175e-01,2.716e-01
3.225e-01,2.851e-01
3.275e-01,2.991e-01
3.325e-01,3.137e-01
3.375e-01,3.287e-01
3.425e-01,3.442e-01
3.475e-01,3.603e-01
3.525e-01,3.769e-01
3.575e-01,3.941e-01
3.625e-01,4.119e-01
3.675e-01,4.302e-01
3.725e-01,4.491e-01
3.775e-01,4.687e-01
3.825e-01,4.888e-01
3.875e-01,5.097e-01
3.925e-01,5.311e-01
3.975e-01,5.532e-01
4.025e-01,5.761e-01
4.075e-01,5.996e-01
4.125e-01,6.238e-01
4.175e-01,6.488e-01
4.225e-01,6.745e-01
4.275e-01,7.010e-01
4.325e-01,7.283e-01
4.375e-01,7.564e-01
4.425e-01,7.853e-01
4.475e-01,8.150e-01
4.525e-01,8.457e-01
4.575e-01,8.772e-01
4.625e-01,9.096e-01
4.675e-01,9.429e-01
4.725e-01,9.772e-01
4.775e-01,1.012e+00
4.825e-01,1.049e+00
4.875e-01,1.086e+00
4.925e-01,1.124e+00
4.975e-01,1.164e+00
5.025e-01,1.204e+00
5.075e-01,1.246e+00
5.125e-01,1.289e+00
5.175e-01,1.333e+00
5.225e-01,1.378e+00
5.275e-01,1.424e+00
5.325e-01,1.472e+00
5.375e-01,1.521e+00
5.425e-01,1.572e+00
5.475e-01,1.623e+00
5.525e-01,1.677e+00
5.575e-01,1.731e+00
5.625e-01,1.788e+00
5.675e-01,1.845e+00
5.725e-01,1.905e+00
5.775e-01,1.966e+00
5.825e-01,2.029e+00
5.875e-01,2.093e+00
5.925e-01,2.160e+00
5.975e-01,2.228e+00
6.025e-01,2.298e+00
6.075e-01,2.371e+00
6.125e-01,2.445e+00
6.175e-01,2.522e+00
6.225e-01,2.601e+00
6.275e-01,2.682e+00
6.325e-01,2.766e+00
6.375e-01,2.852e+00
6.425e-01,2.941e+00
6.475e-01,3.033e+00
6.525e-01,3.128e+00
6.575e-01,3.225e+00
6.625e-01,3.327e+00
6.675e-01,3.431e+00
6.725e-01,3.540e+00
6.775e-01,3.652e+00
6.825e-01,3.768e+00
6.875e-01,3.890e+00
6.925e-01,4.016e+00
6.975e-01,4.147e+00
7.025e-01,4.284e+00
7.075e-01,4.428e+00
7.125e-01,4.579e+00
7.175e-01,4.738e+00
7.225e-01,4.906e+00
7.275e-01,5.086e+00
7.325e-01,5.278e+00
7.375e-01,5.487e+00
7.425e-01,5.717e+00
7.475e-01,5.975e+00
7.525e-01,6.276e+00
7.575e-01,6.648e+00
7.625e-01,7.179e+00
7.675e-01,8.633e+00
7.725e-01,0.000e+00
7.775e-01,0.000e+00
7.825e-01,0.000e+00
7.875e-01,0.000e+00
7.925e-01,0.000e+00
7.975e-01,0.000e+00
8.025e-01,0.000e+00
8.075e-01,0.000e+00
8.125e-01,0.000e+00
8.175e-01,0.000e+00
8.225e-01,0.000e+00
8.275e-01,0.000e+00
8.325e-01,0.000e+00
8.375e-01,0.000e+00
8.425e-01,0.000e+00
8.475e-01,0.000e+00
8.525e-01,0.000e+00
8.575e-01,0.000e+00
8.625e-01,0.000e+00
8.675e-01,0.000e+00
8.725e-01,0.000e+00
8.775e-01,0.000e+00
8.825e-01,0.000e+00
8.875e-01,0.000e+00
8.925e-01,0.000e+00
8.975e-01,0.000e+00
9.025e-01,0.000e+00
9.075e-01,0.000e+00
9.125e-01,0.000e+00
9.175e-01,0.000e+00
9.225e-01,0.000e+00
9.275e-01,0.000e+00
9.325e-01,0.000e+00
9.375e-01,0.000e+00
9.425e-01,0.000e+00
9.475e-01,0.000e+00
9.525e-01,0.000e+00
9.575e-01,0.000e+00
9.625e-01,0.000e+00
9.675e-01,0.000e+00
9.725e-01,0.000e+00
9.775e-01,0.000e+00
9.825e-01,0.000e+00
9.875e-01,0.000e+00
9.925e-01,0.000e+00
9.975e-01,0.000e+00
