transmittance,probability_density
2.500e-03,7.044e-07
7.500e-03,9.785e-06
1.250e-02,3.424e-05
1.750e-02,7.908e-05
2.250e-02,1.488e-04
2.750e-02,2.475e-04
3.250e-02,3.794e-04
3.750e-02,5.485e-04
4.250e-02,7.585e-04
4.750e-02,1.014e-03
5.250e-02,1.317e-03
5.750e-02,1.674e-03
6.250e-02,2.087e-03
6.750e-02,2.560e-03
7.250e-02,3.098e-03
7.750e-02,3.705e-03
8.250e-02,4.383e-03
8.750e-02,5.138e-03
9.250e-02,5.973e-03
9.750e-02,6.893e-03
1.025e-01,7.902e-03
1.075e-01,9.003e-03
1.125e-01,1.020e-02
1.175e-01,1.150e-02
1.225e-01,1.291e-02
1.275e-01,1.442e-02
1.325e-01,1.605e-02
1.375e-01,1.780e-02
1.425e-01,1.968e-02
1.475e-01,2.168e-02
1.525e-01,2.381e-02
1.575e-01,2.609e-02
1.625e-01,2.850e-02
1.675e-01,3.107e-02
1.725e-01,3.378e-02
1.775e-01,3.666e-02
1.825e-01,3.969e-02
1.875e-01,4.290e-02
1.925e-01,4.628e-02
1.975e-01,4.984e-02
2.025e-01,5.358e-02
2.075e-01,5.752e-02
2.125e-01,6.165e-02
2.175e-01,6.598e-02
2.225e-01,7.052e-02
2.275e-01,7.528e-02
2.325e-01,8.025e-02
2.375e-01,8.545e-02
2.425e-01,9.088e-02
2.475e-01,9.656e-02
2.525e-01,1.025e-01
2.575e-01,1.086e-01
2.625e-01,1.151e-01
2.675e-01,1.218e-01
2.725e-01,1.287e-01
2.775e-01,1.360e-01
2.825e-01,1.435e-01
2.875e-01,1.514e-01
2.925e-01,1.595e-01
2.975e-01,1.679e-01
3.025e-01,1.767e-01
3.075e-01,1.858e-01
3.125e-01,1.952e-01
3.175e-01,2.050e-01
3.225e-01,2.151e-01
3.275e-01,2.256e-01
3.325e-01,2.364e-01
3.375e-01,2.477e-01
3.425e-01,2.593e-01
3.475e-01,2.713e-01
3.525e-01,2.837e-01
3.575e-01,2.966e-01
3.625e-01,3.098e-01
3.675e-01,3.236e-01
3.725e-01,3.377e-01
3.775e-01,3.523e-01
3.825e-01,3.674e-01
3.875e-01,3.830e-01
3.925e-01,3.990e-01
3.975e-01,4.156e-01
4.025e-01,4.327e-01
4.075e-01,4.503e-01
4.125e-01,4.685e-01
4.175e-01,4.872e-01
4.225e-01,5.065e-01
4.275e-01,5.263e-01
4.325e-01,5.468e-01
4.375e-01,5.679e-01
4.425e-01,5.896e-01
4.475e-01,6.119e-01
4.525e-01,6.350e-01
4.575e-01,6.586e-01
4.625e-01,6.830e-01
4.675e-01,7.081e-01
4.725e-01,7.339e-01
4.775e-01,7.605e-01
4.825e-01,7.878e-01
4.875e-01,8.159e-01
4.925e-01,8.448e-01
4.975e-01,8.746e-01
5.025e-01,9.051e-01
5.075e-01,9.366e-01
5.125e-01,9.689e-01
5.175e-01,1.002e+00
5.225e-01,1.036e+00
5.275e-01,1.072e+00
5.325e-01,1.108e+00
5.375e-01,1.145e+00
5.425e-01,1.183e+00
5.475e-01,1.222e+00
5.525e-01,1.263e+00
5.575e-01,1.304e+00
5.625e-01,1.347e+00
5.675e-01,1.391e+00
5.725e-01,1.436e+00
5.775e-01,1.482e+00
5.825e-01,1.530e+00
5.875e-01,1.579e+00
5.925e-01,1.630e+00
5.975e-01,1.682e+00
6.025e-01,1.735e+00
6.075e-01,1.790e+00
6.125e-01,1.847e+00
6.175e-01,1.905e+00
6.225e-01,1.965e+00
6.275e-01,2.027e+00
6.325e-01,2.090e+00
6.375e-01,2.156e+00
6.425e-01,2.223e+00
6.475e-01,2.293e+00
6.525e-01,2.365e+00
6.575e-01,2.439e+00
6.625e-01,2.515e+00
6.675e-01,2.594e+00
6.725e-01,2.675e+00
6.775e-01,2.760e+00
6.825e-01,2.847e+00
6.875e-01,2.937e+00
6.925e-01,3.030e+00
6.975e-01,3.126e+00
7.025e-01,3.226e+00
7.075e-01,3.330e+00
7.125e-01,3.438e+00
7.175e-01,3.551e+00
7.225e-01,3.668e+00
7.275e-01,3.790e+00
7.325e-01,3.918e+00
7.375e-01,4.052e+00
7.425e-01,4.192e+00
7.475e-01,4.340e+00
7.525e-01,4.497e+00
7.575e-01,4.663e+00
7.625e-01,4.841e+00
7.675e-01,5.032e+00
7.725e-01,5.238e+00
7.775e-01,5.465e+00
7.825e-01,5.718e+00
7.875e-01,6.005e+00
7.925e-01,6.345e+00
7.975e-01,6.773e+00
8.025e-01,7.388e+00
8.075e-01,8.832e+00
8.125e-01,0.000e+00
8.175e-01,0.000e+00
8.225e-01,0.000e+00
8.275e-01,0.000e+00
8.325e-01,0.000e+00
8.375e-01,0.000e+00
8.425e-01,0.000e+00
8.475e-01,0.000e+00
8.525e-01,0.000e+00
8.575e-01,0.000e+00
8.625e-01,0.000e+00
8.675e-01,0.000e+00
8.725e-01,0.000e+00
8.775e-01,0.000e+00
8.825e-01,0.000e+00
8.875e-01,0.000e+00
8.925e-01,0.000e+00
8.975e-01,0.000e+00
9.025e-01,0.000e+00
9.075e-01,0.000e+00
9.125e-01,0.000e+00
9.175e-01,0.000e+00
9.225e-01,0.000e+00
9.275e-01,0.000e+00
9.325e-01,0.000e+00
9.375e-01,0.000e+00
9.425e-01,0.000e+00
9.475e-01,0.000e+00
9.525e-01,0.000e+00
9.575e-01,0.000e+00
9.625e-01,0.000e+00
9.675e-01,0.000e+00
9.725e-01,0.000e+00
9.775e-01,0.000e+00
9.825e-01,0.000e+00
9.875e-01,0.000e+00
9.925e-01,0.000e+00
9.975e-01,0.000e+00
