transmittance,probability_density
2.500e-03,1.186e-06
7.500e-03,1.586e-05
1.250e-02,5.432e-05
1.750e-02,1.235e-04
2.250e-02,2.295e-04
2.750e-02,3.779e-04
3.250e-02,5.741e-04
3.750e-02,8.232e-04
4.250e-02,1.130e-03
4.750e-02,1.500e-03
5.250e-02,1.938e-03
5.750e-02,2.448e-03
6.250e-02,3.035e-03
6.750e-02,3.705e-03
7.250e-02,4.462e-03
7.750e-02,5.311e-03
8.250e-02,6.256e-03
8.750e-02,7.303e-03
9.250e-02,8.456e-03
9.750e-02,9.720e-03
1.025e-01,1.110e-02
1.075e-01,1.260e-02
1.125e-01,1.423e-02
1.175e-01,1.599e-02
1.225e-01,1.788e-02
1.275e-01,1.992e-02
1.325e-01,2.210e-02
1.375e-01,2.443e-02
1.425e-01,2.692e-02
1.475e-01,2.958e-02
1.525e-01,3.240e-02
1.575e-01,3.539e-02
1.625e-01,3.857e-02
1.675e-01,4.192e-02
1.725e-01,4.547e-02
1.775e-01,4.921e-02
1.825e-01,5.315e-02
1.875e-01,5.730e-02
1.925e-01,6.167e-02
1.975e-01,6.625e-02
2.025e-01,7.106e-02
2.075e-01,7.610e-02
2.125e-01,8.138e-02
2.175e-01,8.690e-02
2.225e-01,9.268e-02
2.275e-01,9.871e-02
2.325e-01,1.050e-01
2.375e-01,1.116e-01
2.425e-01,1.184e-01
2.475e-01,1.255e-01
2.525e-01,1.330e-01
2.575e-01,1.407e-01
2.625e-01,1.487e-01
2.675e-01,1.570e-01
2.725e-01,1.657e-01
2.775e-01,1.747e-01
2.825e-01,1.840e-01
2.875e-01,1.937e-01
2.925e-01,2.037e-01
2.975e-01,2.141e-01
3.025e-01,2.248e-01
3.075e-01,2.360e-01
3.125e-01,2.475e-01
3.175e-01,2.594e-01
3.225e-01,2.717e-01
3.275e-01,2.845e-01
3.325e-01,2.976e-01
3.375e-01,3.112e-01
3.425e-01,3.252e-01
3.475e-01,3.397e-01
3.525e-01,3.547e-01
3.575e-01,3.701e-01
3.625e-01,3.860e-01
3.675e-01,4.024e-01
3.725e-01,4.193e-01
3.775e-01,4.367e-01
3.825e-01,4.546e-01
3.875e-01,4.731e-01
3.925e-01,4.922e-01
3.975e-01,5.118e-01
4.025e-01,5.320e-01
4.075e-01,5.527e-01
4.125e-01,5.741e-01
4.175e-01,5.961e-01
4.225e-01,6.187e-01
4.275e-01,6.420e-01
4.325e-01,6.659e-01
4.375e-01,6.905e-01
4.425e-01,7.158e-01
4.475e-01,7.418e-01
4.525e-01,7.685e-01
4.575e-01,7.959e-01
4.625e-01,8.241e-01
4.675e-01,8.531e-01
4.725e-01,8.829e-01
4.775e-01,9.135e-01
4.825e-01,9.449e-01
4.875e-01,9.771e-01
4.925e-01,1.010e+00
4.975e-01,1.044e+00
5.025e-01,1.079e+00
5.075e-01,1.115e+00
5.125e-01,1.152e+00
5.175e-01,1.190e+00
5.225e-01,1.229e+00
5.275e-01,1.268e+00
5.325e-01,1.309e+00
5.375e-01,1.351e+00
5.425e-01,1.394e+00
5.475e-01,1.439e+00
5.525e-01,1.484e+00
5.575e-01,1.531e+00
5.625e-01,1.579e+00
5.675e-01,1.628e+00
5.725e-01,1.678e+00
5.775e-01,1.730e+00
5.825e-01,1.783e+00
5.875e-01,1.838e+00
5.925e-01,1.894e+00
5.975e-01,1.952e+00
6.025e-01,2.011e+00
6.075e-01,2.072e+00
6.125e-01,2.135e+00
6.175e-01,2.200e+00
6.225e-01,2.266e+00
6.275e-01,2.334e+00
6.325e-01,2.404e+00
6.375e-01,2.476e+00
6.425e-01,2.551e+00
6.475e-01,2.627e+00
6.525e-01,2.706e+00
6.575e-01,2.788e+00
6.625e-01,2.872e+00
6.675e-01,2.958e+00
6.725e-01,3.048e+00
6.775e-01,3.140e+00
6.825e-01,3.236e+00
6.875e-01,3.335e+00
6.925e-01,3.437e+00
6.975e-01,3.544e+00
7.025e-01,3.654e+00
7.075e-01,3.769e+00
7.125e-01,3.889e+00
7.175e-01,4.014e+00
7.225e-01,4.145e+00
7.275e-01,4.282e+00
7.325e-01,4.427e+00
7.375e-01,4.580e+00
7.425e-01,4.742e+00
7.475e-01,4.916e+00
7.525e-01,5.103e+00
7.575e-01,5.307e+00
7.625e-01,5.532e+00
7.675e-01,5.786e+00
7.725e-01,6.084e+00
7.775e-01,6.452e+00
7.825e-01,6.971e+00
7.875e-01,8.116e+00
7.925e-01,0.000e+00
7.975e-01,0.000e+00
8.025e-01,0.000e+00
8.075e-01,0.000e+00
8.125e-01,0.000e+00
8.175e-01,0.000e+00
8.225e-01,0.000e+00
8.275e-01,0.000e+00
8.325e-01,0.000e+00
8.375e-01,0.000e+00
8.425e-01,0.000e+00
8.475e-01,0.000e+00
8.525e-01,0.000e+00
8.575e-01,0.000e+00
8.625e-01,0.000e+00
8.675e-01,0.000e+00
8.725e-01,0.000e+00
8.775e-01,0.000e+00
8.825e-01,0.000e+00
8.875e-01,0.000e+00
8.925e-01,0.000e+00
8.975e-01,0.000e+00
9.025e-01,0.000e+00
9.075e-01,0.000e+00
9.125e-01,0.000e+00
9.175e-01,0.000e+00
9.225e-01,0.000e+00
9.275e-01,0.000e+00
9.325e-01,0.000e+00
9.375e-01,0.000e+00
9.425e-01,0.000e+00
9.475e-01,0.000e+00
9.525e-01,0.000e+00
9.575e-01,0.000e+00
9.625e-01,0.000e+00
9.675e-01,0.000e+00
9.725e-01,0.000e+00
9.775e-01,0.000e+00
9.825e-01,0.000e+00
9.875e-01,0.000e+00
9.925e-01,0.000e+00
9.975e-01,0.000e+00
