transmittance,probability_density
2.500e-03,3.752e-08
7.500e-03,5.937e-07
1.250e-02,2.261e-06
1.750e-02,5.574e-06
2.250e-02,1.107e-05
2.750e-02,1.932e-05
3.250e-02,3.089e-05
3.750e-02,4.639e-05
4.250e-02,6.646e-05
4.750e-02,9.175e-05
5.250e-02,1.230e-04
5.750e-02,1.608e-04
6.250e-02,2.060e-04
6.750e-02,2.595e-04
7.250e-02,3.219e-04
7.750e-02,3.941e-04
8.250e-02,4.771e-04
8.750e-02,5.718e-04
9.250e-02,6.790e-04
9.750e-02,8.000e-04
1.025e-01,9.355e-04
1.075e-01,1.087e-03
1.125e-01,1.255e-03
1.175e-01,1.441e-03
1.225e-01,1.647e-03
1.275e-01,1.873e-03
1.325e-01,2.120e-03
1.375e-01,2.391e-03
1.425e-01,2.687e-03
1.475e-01,3.008e-03
1.525e-01,3.357e-03
1.575e-01,3.735e-03
1.625e-01,4.144e-03
1.675e-01,4.585e-03
1.725e-01,5.060e-03
1.775e-01,5.571e-03
1.825e-01,6.120e-03
1.875e-01,6.708e-03
1.925e-01,7.338e-03
1.975e-01,8.012e-03
2.025e-01,8.731e-03
2.075e-01,9.498e-03
2.125e-01,1.032e-02
2.175e-01,1.119e-02
2.225e-01,1.211e-02
2.275e-01,1.309e-02
2.325e-01,1.413e-02
2.375e-01,1.524e-02
2.425e-01,1.641e-02
2.475e-01,1.765e-02
2.525e-01,1.896e-02
2.575e-01,2.034e-02
2.625e-01,2.180e-02
2.675e-01,2.335e-02
2.725e-01,2.497e-02
2.775e-01,2.668e-02
2.825e-01,2.849e-02
2.875e-01,3.039e-02
2.925e-01,3.238e-02
2.975e-01,3.448e-02
3.025e-01,3.669e-02
3.075e-01,3.900e-02
3.125e-01,4.144e-02
3.175e-01,4.399e-02
3.225e-01,4.666e-02
3.275e-01,4.946e-02
3.325e-01,5.240e-02
3.375e-01,5.548e-02
3.425e-01,5.869e-02
3.475e-01,6.206e-02
3.525e-01,6.559e-02
3.575e-01,6.927e-02
3.625e-01,7.312e-02
3.675e-01,7.715e-02
3.725e-01,8.135e-02
3.775e-01,8.574e-02
3.825e-01,9.032e-02
3.875e-01,9.510e-02
3.925e-01,1.001e-01
3.975e-01,1.053e-01
4.025e-01,1.107e-01
4.075e-01,1.164e-01
4.125e-01,1.223e-01
4.175e-01,1.284e-01
4.225e-01,1.348e-01
4.275e-01,1.415e-01
4.325e-01,1.484e-01
4.375e-01,1.556e-01
4.425e-01,1.631e-01
4.475e-01,1.710e-01
4.525e-01,1.791e-01
4.575e-01,1.876e-01
4.625e-01,1.964e-01
4.675e-01,2.055e-01
4.725e-01,2.151e-01
4.775e-01,2.250e-01
4.825e-01,2.353e-01
4.875e-01,2.460e-01
4.925e-01,2.571e-01
4.975e-01,2.686e-01
5.025e-01,2.806e-01
5.075e-01,2.931e-01
5.125e-01,3.061e-01
5.175e-01,3.195e-01
5.225e-01,3.335e-01
5.275e-01,3.480e-01
5.325e-01,3.631e-01
5.375e-01,3.788e-01
5.425e-01,3.950e-01
5.475e-01,4.119e-01
5.525e-01,4.294e-01
5.575e-01,4.476e-01
5.625e-01,4.665e-01
5.675e-01,4.862e-01
5.725e-01,5.065e-01
5.775e-01,5.277e-01
5.825e-01,5.496e-01
5.875e-01,5.724e-01
5.925e-01,5.961e-01
5.975e-01,6.207e-01
6.025e-01,6.462e-01
6.075e-01,6.727e-01
6.125e-01,7.003e-01
6.175e-01,7.289e-01
6.225e-01,7.586e-01
6.275e-01,7.894e-01
6.325e-01,8.214e-01
6.375e-01,8.547e-01
6.425e-01,8.893e-01
6.475e-01,9.253e-01
6.525e-01,9.627e-01
6.575e-01,1.002e+00
6.625e-01,1.042e+00
6.675e-01,1.084e+00
6.725e-01,1.128e+00
6.775e-01,1.173e+00
6.825e-01,1.220e+00
6.875e-01,1.270e+00
6.925e-01,1.321e+00
6.975e-01,1.374e+00
7.025e-01,1.430e+00
7.075e-01,1.488e+00
7.125e-01,1.548e+00
7.175e-01,1.611e+00
7.225e-01,1.677e+00
7.275e-01,1.746e+00
7.325e-01,1.818e+00
7.375e-01,1.893e+00
7.425e-01,1.971e+00
7.475e-01,2.053e+00
7.525e-01,2.139e+00
7.575e-01,2.229e+00
7.625e-01,2.323e+00
7.675e-01,2.422e+00
7.725e-01,2.526e+00
7.775e-01,2.635e+00
7.825e-01,2.750e+00
7.875e-01,2.871e+00
7.925e-01,2.999e+00
7.975e-01,3.134e+00
8.025e-01,3.276e+00
8.075e-01,3.428e+00
8.125e-01,3.589e+00
8.175e-01,3.760e+00
8.225e-01,3.943e+00
8.275e-01,4.138e+00
8.325e-01,4.348e+00
8.375e-01,4.575e+00
8.425e-01,4.820e+00
8.475e-01,5.087e+00
8.525e-01,5.380e+00
8.575e-01,5.703e+00
8.625e-01,6.064e+00
8.675e-01,6.472e+00
8.725e-01,6.942e+00
8.775e-01,7.495e+00
8.825e-01,8.170e+00
8.875e-01,9.043e+00
8.925e-01,1.030e+01
8.975e-01,1.273e+01
9.025e-01,0.000e+00
9.075e-01,0.000e+00
9.125e-01,0.000e+00
9.175e-01,0.000e+00
9.225e-01,0.000e+00
9.275e-01,0.000e+00
9.325e-01,0.000e+00
9.375e-01,0.000e+00
9.425e-01,0.000e+00
9.475e-01,0.000e+00
9.525e-01,0.000e+00
9.575e-01,0.000e+00
9.625e-01,0.000e+00
9.675e-01,0.000e+00
9.725e-01,0.000e+00
9.775e-01,0.000e+00
9.825e-01,0.000e+00
9.875e-01,0.000e+00
9.925e-01,0.000e+00
9.975e-01,0.000e+00
