transmittance,probability_density
2.500e-03,4.224e-07
7.500e-03,6.066e-06
1.250e-02,2.164e-05
1.750e-02,5.068e-05
2.250e-02,9.643e-05
2.750e-02,1.620e-04
3.250e-02,2.505e-04
3.750e-02,3.648e-04
4.250e-02,5.080e-04
4.750e-02,6.830e-04
5.250e-02,8.930e-04
5.750e-02,1.141e-03
6.250e-02,1.430e-03
6.750e-02,1.763e-03
7.250e-02,2.143e-03
7.750e-02,2.574e-03
8.250e-02,3.058e-03
8.750e-02,3.600e-03
9.250e-02,4.201e-03
9.750e-02,4.867e-03
1.025e-01,5.599e-03
1.075e-01,6.402e-03
1.125e-01,7.279e-03
1.175e-01,8.233e-03
1.225e-01,9.270e-03
1.275e-01,1.039e-02
1.325e-01,1.160e-02
1.375e-01,1.290e-02
1.425e-01,1.430e-02
1.475e-01,1.580e-02
1.525e-01,1.741e-02
1.575e-01,1.912e-02
1.625e-01,2.095e-02
1.675e-01,2.289e-02
1.725e-01,2.496e-02
1.775e-01,2.715e-02
1.825e-01,2.948e-02
1.875e-01,3.194e-02
1.925e-01,3.454e-02
1.975e-01,3.728e-02
2.025e-01,4.017e-02
2.075e-01,4.322e-02
2.125e-01,4.643e-02
2.175e-01,4.981e-02
2.225e-01,5.335e-02
2.275e-01,5.707e-02
2.325e-01,6.098e-02
2.375e-01,6.507e-02
2.425e-01,6.935e-02
2.475e-01,7.383e-02
2.525e-01,7.852e-02
2.575e-01,8.342e-02
2.625e-01,8.853e-02
2.675e-01,9.387e-02
2.725e-01,9.944e-02
2.775e-01,1.052e-01
2.825e-01,1.113e-01
2.875e-01,1.176e-01
2.925e-01,1.241e-01
2.975e-01,1.310e-01
3.025e-01,1.381e-01
3.075e-01,1.454e-01
3.125e-01,1.531e-01
3.175e-01,1.610e-01
3.225e-01,1.693e-01
3.275e-01,1.779e-01
3.325e-01,1.868e-01
3.375e-01,1.960e-01
3.425e-01,2.055e-01
3.475e-01,2.154e-01
3.525e-01,2.257e-01
3.575e-01,2.363e-01
3.625e-01,2.473e-01
3.675e-01,2.587e-01
3.725e-01,2.705e-01
3.775e-01,2.826e-01
3.825e-01,2.952e-01
3.875e-01,3.083e-01
3.925e-01,3.217e-01
3.975e-01,3.356e-01
4.025e-01,3.500e-01
4.075e-01,3.648e-01
4.125e-01,3.801e-01
4.175e-01,3.960e-01
4.225e-01,4.123e-01
4.275e-01,4.292e-01
4.325e-01,4.466e-01
4.375e-01,4.645e-01
4.425e-01,4.830e-01
4.475e-01,5.021e-01
4.525e-01,5.218e-01
4.575e-01,5.421e-01
4.625e-01,5.631e-01
4.675e-01,5.846e-01
4.725e-01,6.069e-01
4.775e-01,6.298e-01
4.825e-01,6.534e-01
4.875e-01,6.778e-01
4.925e-01,7.028e-01
4.975e-01,7.287e-01
5.025e-01,7.553e-01
5.075e-01,7.827e-01
5.125e-01,8.109e-01
5.175e-01,8.400e-01
5.225e-01,8.699e-01
5.275e-01,9.008e-01
5.325e-01,9.325e-01
5.375e-01,9.652e-01
5.425e-01,9.989e-01
5.475e-01,1.034e+00
5.525e-01,1.069e+00
5.575e-01,1.106e+00
5.625e-01,1.144e+00
5.675e-01,1.183e+00
5.725e-01,1.223e+00
5.775e-01,1.264e+00
5.825e-01,1.307e+00
5.875e-01,1.351e+00
5.925e-01,1.396e+00
5.975e-01,1.443e+00
6.025e-01,1.490e+00
6.075e-01,1.540e+00
6.125e-01,1.591e+00
6.175e-01,1.643e+00
6.225e-01,1.697e+00
6.275e-01,1.753e+00
6.325e-01,1.810e+00
6.375e-01,1.870e+00
6.425e-01,1.931e+00
6.475e-01,1.994e+00
6.525e-01,2.059e+00
6.575e-01,2.126e+00
6.625e-01,2.196e+00
6.675e-01,2.267e+00
6.725e-01,2.341e+00
6.775e-01,2.418e+00
6.825e-01,2.497e+00
6.875e-01,2.579e+00
6.925e-01,2.664e+00
6.975e-01,2.752e+00
7.025e-01,2.843e+00
7.075e-01,2.938e+00
7.125e-01,3.036e+00
7.175e-01,3.138e+00
7.225e-01,3.244e+00
7.275e-01,3.355e+00
7.325e-01,3.470e+00
7.375e-01,3.590e+00
7.425e-01,3.716e+00
7.475e-01,3.848e+00
7.525e-01,3.986e+00
7.575e-01,4.132e+00
7.625e-01,4.285e+00
7.675e-01,4.448e+00
7.725e-01,4.621e+00
7.775e-01,4.806e+00
7.825e-01,5.005e+00
7.875e-01,5.220e+00
7.925e-01,5.455e+00
7.975e-01,5.715e+00
8.025e-01,6.009e+00
8.075e-01,6.350e+00
8.125e-01,6.763e+00
8.175e-01,7.303e+00
8.225e-01,8.154e+00
8.275e-01,0.000e+00
8.325e-01,0.000e+00
8.375e-01,0.000e+00
8.425e-01,0.000e+00
8.475e-01,0.000e+00
8.525e-01,0.000e+00
8.575e-01,0.000e+00
8.625e-01,0.000e+00
8.675e-01,0.000e+00
8.725e-01,0.000e+00
8.775e-01,0.000e+00
8.825e-01,0.000e+00
8.875e-01,0.000e+00
8.925e-01,0.000e+00
8.975e-01,0.000e+00
9.025e-01,0.000e+00
9.075e-01,0.000e+00
9.125e-01,0.000e+00
9.175e-01,0.000e+00
9.225e-01,0.000e+00
9.275e-01,0.000e+00
9.325e-01,0.000e+00
9.375e-01,0.000e+00
9.425e-01,0.000e+00
9.475e-01,0.000e+00
9.525e-01,0.000e+00
9.575e-01,0.000e+00
9.625e-01,0.000e+00
9.675e-01,0.000e+00
9.725e-01,0.000e+00
9.775e-01,0.000e+00
9.825e-01,0.000e+00
9.875e-01,0.000e+00
9.925e-01,0.000e+00
9.975e-01,0.000e+00
