transmittance,probability_density
2.500e-03,5.991e-08
7.500e-03,9.375e-07
1.250e-02,3.536e-06
1.750e-02,8.650e-06
2.250e-02,1.707e-05
2.750e-02,2.959e-05
3.250e-02,4.705e-05
3.750e-02,7.029e-05
4.250e-02,1.002e-04
4.750e-02,1.377e-04
5.250e-02,1.837e-04
5.750e-02,2.393e-04
6.250e-02,3.054e-04
6.750e-02,3.831e-04
7.250e-02,4.736e-04
7.750e-02,5.778e-04
8.250e-02,6.971e-04
8.750e-02,8.327e-04
9.250e-02,9.858e-04
9.750e-02,1.158e-03
1.025e-01,1.350e-03
1.075e-01,1.563e-03
1.125e-01,1.800e-03
1.175e-01,2.062e-03
1.225e-01,2.349e-03
1.275e-01,2.664e-03
1.325e-01,3.009e-03
1.375e-01,3.384e-03
1.425e-01,3.793e-03
1.475e-01,4.236e-03
1.525e-01,4.715e-03
1.575e-01,5.234e-03
1.625e-01,5.792e-03
1.675e-01,6.394e-03
1.725e-01,7.040e-03
1.775e-01,7.733e-03
1.825e-01,8.475e-03
1.875e-01,9.269e-03
1.925e-01,1.012e-02
1.975e-01,1.102e-02
2.025e-01,1.198e-02
2.075e-01,1.301e-02
2.125e-01,1.410e-02
2.175e-01,1.526e-02
2.225e-01,1.648e-02
2.275e-01,1.778e-02
2.325e-01,1.916e-02
2.375e-01,2.062e-02
2.425e-01,2.216e-02
2.475e-01,2.378e-02
2.525e-01,2.550e-02
2.575e-01,2.730e-02
2.625e-01,2.921e-02
2.675e-01,3.121e-02
2.725e-01,3.332e-02
2.775e-01,3.554e-02
2.825e-01,3.788e-02
2.875e-01,4.032e-02
2.925e-01,4.289e-02
2.975e-01,4.559e-02
3.025e-01,4.842e-02
3.075e-01,5.138e-02
3.125e-01,5.449e-02
3.175e-01,5.774e-02
3.225e-01,6.114e-02
3.275e-01,6.469e-02
3.325e-01,6.841e-02
3.375e-01,7.230e-02
3.425e-01,7.636e-02
3.475e-01,8.060e-02
3.525e-01,8.503e-02
3.575e-01,8.965e-02
3.625e-01,9.447e-02
3.675e-01,9.950e-02
3.725e-01,1.047e-01
3.775e-01,1.102e-01
3.825e-01,1.159e-01
3.875e-01,1.218e-01
3.925e-01,1.280e-01
3.975e-01,1.344e-01
4.025e-01,1.411e-01
4.075e-01,1.481e-01
4.125e-01,1.553e-01
4.175e-01,1.628e-01
4.225e-01,1.707e-01
4.275e-01,1.788e-01
4.325e-01,1.873e-01
4.375e-01,1.961e-01
4.425e-01,2.052e-01
4.475e-01,2.147e-01
4.525e-01,2.246e-01
4.575e-01,2.348e-01
4.625e-01,2.454e-01
4.675e-01,2.564e-01
4.725e-01,2.679e-01
4.775e-01,2.798e-01
4.825e-01,2.921e-01
4.875e-01,3.049e-01
4.925e-01,3.182e-01
4.975e-01,3.319e-01
5.025e-01,3.462e-01
5.075e-01,3.610e-01
5.125e-01,3.764e-01
5.175e-01,3.923e-01
5.225e-01,4.088e-01
5.275e-01,4.259e-01
5.325e-01,4.437e-01
5.375e-01,4.620e-01
5.425e-01,4.811e-01
5.475e-01,5.009e-01
5.525e-01,5.214e-01
5.575e-01,5.426e-01
5.625e-01,5.646e-01
5.675e-01,5.874e-01
5.725e-01,6.111e-01
5.775e-01,6.356e-01
5.825e-01,6.610e-01
5.875e-01,6.873e-01
5.925e-01,7.146e-01
5.975e-01,7.429e-01
6.025e-01,7.722e-01
6.075e-01,8.026e-01
6.125e-01,8.341e-01
6.175e-01,8.668e-01
6.225e-01,9.007e-01
6.275e-01,9.358e-01
6.325e-01,9.722e-01
6.375e-01,1.010e+00
6.425e-01,1.049e+00
6.475e-01,1.090e+00
6.525e-01,1.132e+00
6.575e-01,1.176e+00
6.625e-01,1.221e+00
6.675e-01,1.269e+00
6.725e-01,1.318e+00
6.775e-01,1.369e+00
6.825e-01,1.422e+00
6.875e-01,1.477e+00
6.925e-01,1.534e+00
6.975e-01,1.593e+00
7.025e-01,1.655e+00
7.075e-01,1.720e+00
7.125e-01,1.787e+00
7.175e-01,1.857e+00
7.225e-01,1.929e+00
7.275e-01,2.005e+00
7.325e-01,2.085e+00
7.375e-01,2.167e+00
7.425e-01,2.253e+00
7.475e-01,2.344e+00
7.525e-01,2.438e+00
7.575e-01,2.537e+00
7.625e-01,2.640e+00
7.675e-01,2.749e+00
7.725e-01,2.863e+00
7.775e-01,2.982e+00
7.825e-01,3.108e+00
7.875e-01,3.241e+00
7.925e-01,3.381e+00
7.975e-01,3.529e+00
8.025e-01,3.686e+00
8.075e-01,3.853e+00
8.125e-01,4.030e+00
8.175e-01,4.220e+00
8.225e-01,4.423e+00
8.275e-01,4.641e+00
8.325e-01,4.877e+00
8.375e-01,5.134e+00
8.425e-01,5.414e+00
8.475e-01,5.724e+00
8.525e-01,6.070e+00
8.575e-01,6.461e+00
8.625e-01,6.912e+00
8.675e-01,7.447e+00
8.725e-01,8.110e+00
8.775e-01,8.994e+00
8.825e-01,1.038e+01
8.875e-01,1.439e+01
8.925e-01,0.000e+00
8.975e-01,0.000e+00
9.025e-01,0.000e+00
9.075e-01,0.000e+00
9.125e-01,0.000e+00
9.175e-01,0.000e+00
9.225e-01,0.000e+00
9.275e-01,0.000e+00
9.325e-01,0.000e+00
9.375e-01,0.000e+00
9.425e-01,0.000e+00
9.475e-01,0.000e+00
9.525e-01,0.000e+00
9.575e-01,0.000e+00
9.625e-01,0.000e+00
9.675e-01,0.000e+00
9.725e-01,0.000e+00
9.775e-01,0.000e+00
9.825e-01,0.000e+00
9.875e-01,0.000e+00
9.925e-01,0.000e+00
9.975e-01,0.000e+00
