transmittance,probability_density
2.500e-03,3.452e-06
7.500e-03,4.212e-05
1.250e-02,1.374e-04
1.750e-02,3.018e-04
2.250e-02,5.455e-04
2.750e-02,8.779e-04
3.250e-02,1.307e-03
3.750e-02,1.842e-03
4.250e-02,2.490e-03
4.750e-02,3.257e-03
5.250e-02,4.152e-03
5.750e-02,5.182e-03
6.250e-02,6.352e-03
6.750e-02,7.671e-03
7.250e-02,9.144e-03
7.750e-02,1.078e-02
8.250e-02,1.258e-02
8.750e-02,1.456e-02
9.250e-02,1.671e-02
9.750e-02,1.906e-02
1.025e-01,2.160e-02
1.075e-01,2.433e-02
1.125e-01,2.728e-02
1.175e-01,3.043e-02
1.225e-01,3.381e-02
1.275e-01,3.741e-02
1.325e-01,4.124e-02
1.375e-01,4.531e-02
1.425e-01,4.962e-02
1.475e-01,5.419e-02
1.525e-01,5.902e-02
1.575e-01,6.410e-02
1.625e-01,6.946e-02
1.675e-01,7.510e-02
1.725e-01,8.102e-02
1.775e-01,8.723e-02
1.825e-01,9.374e-02
1.875e-01,1.006e-01
1.925e-01,1.077e-01
1.975e-01,1.151e-01
2.025e-01,1.229e-01
2.075e-01,1.310e-01
2.125e-01,1.394e-01
2.175e-01,1.482e-01
2.225e-01,1.574e-01
2.275e-01,1.669e-01
2.325e-01,1.767e-01
2.375e-01,1.870e-01
2.425e-01,1.976e-01
2.475e-01,2.086e-01
2.525e-01,2.200e-01
2.575e-01,2.319e-01
2.625e-01,2.441e-01
2.675e-01,2.568e-01
2.725e-01,2.699e-01
2.775e-01,2.834e-01
2.825e-01,2.974e-01
2.875e-01,3.118e-01
2.925e-01,3.267e-01
2.975e-01,3.421e-01
3.025e-01,3.580e-01
3.075e-01,3.743e-01
3.125e-01,3.912e-01
3.175e-01,4.085e-01
3.225e-01,4.264e-01
3.275e-01,4.448e-01
3.325e-01,4.638e-01
3.375e-01,4.833e-01
3.425e-01,5.033e-01
3.475e-01,5.239e-01
3.525e-01,5.451e-01
3.575e-01,5.669e-01
3.625e-01,5.893e-01
3.675e-01,6.123e-01
3.725e-01,6.360e-01
3.775e-01,6.602e-01
3.825e-01,6.851e-01
3.875e-01,7.107e-01
3.925e-01,7.370e-01
3.975e-01,7.639e-01
4.025e-01,7.915e-01
4.075e-01,8.198e-01
4.125e-01,8.489e-01
4.175e-01,8.787e-01
4.225e-01,9.092e-01
4.275e-01,9.405e-01
4.325e-01,9.726e-01
4.375e-01,1.006e+00
4.425e-01,1.039e+00
4.475e-01,1.074e+00
4.525e-01,1.109e+00
4.575e-01,1.145e+00
4.625e-01,1.182e+00
4.675e-01,1.220e+00
4.725e-01,1.259e+00
4.775e-01,1.299e+00
4.825e-01,1.340e+00
4.875e-01,1.382e+00
4.925e-01,1.425e+00
4.975e-01,1.468e+00
5.025e-01,1.513e+00
5.075e-01,1.559e+00
5.125e-01,1.606e+00
5.175e-01,1.654e+00
5.225e-01,1.703e+00
5.275e-01,1.754e+00
5.325e-01,1.805e+00
5.375e-01,1.858e+00
5.425e-01,1.912e+00
5.475e-01,1.968e+00
5.525e-01,2.024e+00
5.575e-01,2.082e+00
5.625e-01,2.142e+00
5.675e-01,2.203e+00
5.725e-01,2.265e+00
5.775e-01,2.329e+00
5.825e-01,2.395e+00
5.875e-01,2.462e+00
5.925e-01,2.531e+00
5.975e-01,2.602e+00
6.025e-01,2.674e+00
6.075e-01,2.748e+00
6.125e-01,2.825e+00
6.175e-01,2.903e+00
6.225e-01,2.984e+00
6.275e-01,3.066e+00
6.325e-01,3.151e+00
6.375e-01,3.239e+00
6.425e-01,3.329e+00
6.475e-01,3.422e+00
6.525e-01,3.518e+00
6.575e-01,3.617e+00
6.625e-01,3.719e+00
6.675e-01,3.825e+00
6.725e-01,3.934e+00
6.775e-01,4.048e+00
6.825e-01,4.167e+00
6.875e-01,4.291e+00
6.925e-01,4.421e+00
6.975e-01,4.557e+00
7.025e-01,4.701e+00
7.075e-01,4.854e+00
7.125e-01,5.018e+00
7.175e-01,5.197e+00
7.225e-01,5.394e+00
7.275e-01,5.618e+00
7.325e-01,5.885e+00
7.375e-01,6.233e+00
7.425e-01,6.835e+00
7.475e-01,0.000e+00
7.525e-01,0.000e+00
7.575e-01,0.000e+00
7.625e-01,0.000e+00
7.675e-01,0.000e+00
7.725e-01,0.000e+00
7.775e-01,0.000e+00
7.825e-01,0.000e+00
7.875e-01,0.000e+00
7.925e-01,0.000e+00
7.975e-01,0.000e+00
8.025e-01,0.000e+00
8.075e-01,0.000e+00
8.125e-01,0.000e+00
8.175e-01,0.000e+00
8.225e-01,0.000e+00
8.275e-01,0.000e+00
8.325e-01,0.000e+00
8.375e-01,0.000e+00
8.425e-01,0.000e+00
8.475e-01,0.000e+00
8.525e-01,0.000e+00
8.575e-01,0.000e+00
8.625e-01,0.000e+00
8.675e-01,0.000e+00
8.725e-01,0.000e+00
8.775e-01,0.000e+00
8.825e-01,0.000e+00
8.875e-01,0.000e+00
8.925e-01,0.000e+00
8.975e-01,0.000e+00
9.025e-01,0.000e+00
9.075e-01,0.000e+00
9.125e-01,0.000e+00
9.175e-01,0.000e+00
9.225e-01,0.000e+00
9.275e-01,0.000e+00
9.325e-01,0.000e+00
9.375e-01,0.000e+00
9.425e-01,0.000e+00
9.475e-01,0.000e+00
9.525e-01,0.000e+00
9.575e-01,0.000e+00
9.625e-01,0.000e+00
9.675e-01,0.000e+00
9.725e-01,0.000e+00
9.775e-01,0.000e+00
9.825e-01,0.000e+00
9.875e-01,0.000e+00
9.925e-01,0.000e+00
9.975e-01,0.000e+00
