transmittance,probability_density
2.500e-03,1.500e-08
7.500e-03,2.403e-07
1.250e-02,9.279e-07
1.750e-02,2.317e-06
2.250e-02,4.658e-06
2.750e-02,8.213e-06
3.250e-02,1.326e-05
3.750e-02,2.010e-05
4.250e-02,2.905e-05
4.750e-02,4.044e-05
5.250e-02,5.463e-05
5.750e-02,7.199e-05
6.250e-02,9.291e-05
6.750e-02,1.178e-04
7.250e-02,1.471e-04
7.750e-02,1.813e-04
8.250e-02,2.209e-04
8.750e-02,2.664e-04
9.250e-02,3.183e-04
9.750e-02,3.771e-04
1.025e-01,4.436e-04
1.075e-01,5.182e-04
1.125e-01,6.017e-04
1.175e-01,6.947e-04
1.225e-01,7.979e-04
1.275e-01,9.120e-04
1.325e-01,1.038e-03
1.375e-01,1.176e-03
1.425e-01,1.328e-03
1.475e-01,1.494e-03
1.525e-01,1.676e-03
1.575e-01,1.873e-03
1.625e-01,2.088e-03
1.675e-01,2.320e-03
1.725e-01,2.572e-03
1.775e-01,2.845e-03
1.825e-01,3.139e-03
1.875e-01,3.455e-03
1.925e-01,3.796e-03
1.975e-01,4.162e-03
2.025e-01,4.555e-03
2.075e-01,4.975e-03
2.125e-01,5.426e-03
2.175e-01,5.907e-03
2.225e-01,6.422e-03
2.275e-01,6.971e-03
2.325e-01,7.555e-03
2.375e-01,8.178e-03
2.425e-01,8.841e-03
2.475e-01,9.545e-03
2.525e-01,1.029e-02
2.575e-01,1.109e-02
2.625e-01,1.193e-02
2.675e-01,1.282e-02
2.725e-01,1.376e-02
2.775e-01,1.476e-02
2.825e-01,1.582e-02
2.875e-01,1.694e-02
2.925e-01,1.812e-02
2.975e-01,1.936e-02
3.025e-01,2.067e-02
3.075e-01,2.206e-02
3.125e-01,2.352e-02
3.175e-01,2.505e-02
3.225e-01,2.667e-02
3.275e-01,2.837e-02
3.325e-01,3.016e-02
3.375e-01,3.205e-02
3.425e-01,3.402e-02
3.475e-01,3.610e-02
3.525e-01,3.828e-02
3.575e-01,4.057e-02
3.625e-01,4.298e-02
3.675e-01,4.550e-02
3.725e-01,4.814e-02
3.775e-01,5.091e-02
3.825e-01,5.381e-02
3.875e-01,5.685e-02
3.925e-01,6.004e-02
3.975e-01,6.337e-02
4.025e-01,6.686e-02
4.075e-01,7.051e-02
4.125e-01,7.433e-02
4.175e-01,7.832e-02
4.225e-01,8.250e-02
4.275e-01,8.687e-02
4.325e-01,9.143e-02
4.375e-01,9.619e-02
4.425e-01,1.012e-01
4.475e-01,1.064e-01
4.525e-01,1.118e-01
4.575e-01,1.175e-01
4.625e-01,1.234e-01
4.675e-01,1.296e-01
4.725e-01,1.360e-01
4.775e-01,1.428e-01
4.825e-01,1.498e-01
4.875e-01,1.571e-01
4.925e-01,1.647e-01
4.975e-01,1.727e-01
5.025e-01,1.810e-01
5.075e-01,1.897e-01
5.125e-01,1.987e-01
5.175e-01,2.081e-01
5.225e-01,2.179e-01
5.275e-01,2.281e-01
5.325e-01,2.388e-01
5.375e-01,2.499e-01
5.425e-01,2.615e-01
5.475e-01,2.735e-01
5.525e-01,2.861e-01
5.575e-01,2.992e-01
5.625e-01,3.128e-01
5.675e-01,3.270e-01
5.725e-01,3.418e-01
5.775e-01,3.573e-01
5.825e-01,3.734e-01
5.875e-01,3.901e-01
5.925e-01,4.076e-01
5.975e-01,4.258e-01
6.025e-01,4.447e-01
6.075e-01,4.645e-01
6.125e-01,4.851e-01
6.175e-01,5.065e-01
6.225e-01,5.289e-01
6.275e-01,5.522e-01
6.325e-01,5.765e-01
6.375e-01,6.018e-01
6.425e-01,6.282e-01
6.475e-01,6.558e-01
6.525e-01,6.845e-01
6.575e-01,7.145e-01
6.625e-01,7.457e-01
6.675e-01,7.784e-01
6.725e-01,8.124e-01
6.775e-01,8.480e-01
6.825e-01,8.851e-01
6.875e-01,9.238e-01
6.925e-01,9.643e-01
6.975e-01,1.007e+00
7.025e-01,1.051e+00
7.075e-01,1.097e+00
7.125e-01,1.145e+00
7.175e-01,1.196e+00
7.225e-01,1.249e+00
7.275e-01,1.304e+00
7.325e-01,1.363e+00
7.375e-01,1.423e+00
7.425e-01,1.487e+00
7.475e-01,1.554e+00
7.525e-01,1.624e+00
7.575e-01,1.698e+00
7.625e-01,1.776e+00
7.675e-01,1.857e+00
7.725e-01,1.943e+00
7.775e-01,2.033e+00
7.825e-01,2.129e+00
7.875e-01,2.229e+00
7.925e-01,2.335e+00
7.975e-01,2.448e+00
8.025e-01,2.566e+00
8.075e-01,2.692e+00
8.125e-01,2.826e+00
8.175e-01,2.968e+00
8.225e-01,3.120e+00
8.275e-01,3.281e+00
8.325e-01,3.454e+00
8.375e-01,3.639e+00
8.425e-01,3.838e+00
8.475e-01,4.052e+00
8.525e-01,4.284e+00
8.575e-01,4.537e+00
8.625e-01,4.812e+00
8.675e-01,5.114e+00
8.725e-01,5.447e+00
8.775e-01,5.819e+00
8.825e-01,6.237e+00
8.875e-01,6.713e+00
8.925e-01,7.265e+00
8.975e-01,7.920e+00
9.025e-01,8.723e+00
9.075e-01,9.760e+00
9.125e-01,1.123e+01
9.175e-01,1.382e+01
9.225e-01,0.000e+00
9.275e-01,0.000e+00
9.325e-01,0.000e+00
9.375e-01,0.000e+00
9.425e-01,0.000e+00
9.475e-01,0.000e+00
9.525e-01,0.000e+00
9.575e-01,0.000e+00
9.625e-01,0.000e+00
9.675e-01,0.000e+00
9.725e-01,0.000e+00
9.775e-01,0.000e+00
9.825e-01,0.000e+00
9.875e-01,0.000e+00
9.925e-01,0.000e+00
9.975e-01,0.000e+00
