transmittance,probability_density
2.500e-03,1.735e-09
7.500e-03,3.622e-08
1.250e-02,1.596e-07
1.750e-02,4.361e-07
2.250e-02,9.396e-07
2.750e-02,1.754e-06
3.250e-02,2.972e-06
3.750e-02,4.700e-06
4.250e-02,7.051e-06
4.750e-02,1.015e-05
5.250e-02,1.415e-05
5.750e-02,1.918e-05
6.250e-02,2.541e-05
6.750e-02,3.303e-05
7.250e-02,4.222e-05
7.750e-02,5.318e-05
8.250e-02,6.614e-05
8.750e-02,8.133e-05
9.250e-02,9.901e-05
9.750e-02,1.194e-04
1.025e-01,1.429e-04
1.075e-01,1.697e-04
1.125e-01,2.002e-04
1.175e-01,2.347e-04
1.225e-01,2.736e-04
1.275e-01,3.173e-04
1.325e-01,3.661e-04
1.375e-01,4.206e-04
1.425e-01,4.811e-04
1.475e-01,5.482e-04
1.525e-01,6.223e-04
1.575e-01,7.041e-04
1.625e-01,7.940e-04
1.675e-01,8.927e-04
1.725e-01,1.001e-03
1.775e-01,1.119e-03
1.825e-01,1.248e-03
1.875e-01,1.388e-03
1.925e-01,1.541e-03
1.975e-01,1.706e-03
2.025e-01,1.886e-03
2.075e-01,2.080e-03
2.125e-01,2.290e-03
2.175e-01,2.517e-03
2.225e-01,2.762e-03
2.275e-01,3.025e-03
2.325e-01,3.308e-03
2.375e-01,3.612e-03
2.425e-01,3.939e-03
2.475e-01,4.289e-03
2.525e-01,4.664e-03
2.575e-01,5.065e-03
2.625e-01,5.494e-03
2.675e-01,5.953e-03
2.725e-01,6.442e-03
2.775e-01,6.964e-03
2.825e-01,7.520e-03
2.875e-01,8.113e-03
2.925e-01,8.744e-03
2.975e-01,9.414e-03
3.025e-01,1.013e-02
3.075e-01,1.088e-02
3.125e-01,1.169e-02
3.175e-01,1.254e-02
3.225e-01,1.345e-02
3.275e-01,1.440e-02
3.325e-01,1.542e-02
3.375e-01,1.649e-02
3.425e-01,1.763e-02
3.475e-01,1.884e-02
3.525e-01,2.011e-02
3.575e-01,2.145e-02
3.625e-01,2.287e-02
3.675e-01,2.437e-02
3.725e-01,2.595e-02
3.775e-01,2.762e-02
3.825e-01,2.938e-02
3.875e-01,3.124e-02
3.925e-01,3.319e-02
3.975e-01,3.525e-02
4.025e-01,3.742e-02
4.075e-01,3.971e-02
4.125e-01,4.211e-02
4.175e-01,4.464e-02
4.225e-01,4.731e-02
4.275e-01,5.011e-02
4.325e-01,5.305e-02
4.375e-01,5.614e-02
4.425e-01,5.939e-02
4.475e-01,6.281e-02
4.525e-01,6.640e-02
4.575e-01,7.017e-02
4.625e-01,7.412e-02
4.675e-01,7.827e-02
4.725e-01,8.263e-02
4.775e-01,8.721e-02
4.825e-01,9.201e-02
4.875e-01,9.704e-02
4.925e-01,1.023e-01
4.975e-01,1.079e-01
5.025e-01,1.137e-01
5.075e-01,1.197e-01
5.125e-01,1.261e-01
5.175e-01,1.328e-01
5.225e-01,1.398e-01
5.275e-01,1.472e-01
5.325e-01,1.549e-01
5.375e-01,1.629e-01
5.425e-01,1.714e-01
5.475e-01,1.802e-01
5.525e-01,1.895e-01
5.575e-01,1.992e-01
5.625e-01,2.094e-01
5.675e-01,2.200e-01
5.725e-01,2.312e-01
5.775e-01,2.429e-01
5.825e-01,2.551e-01
5.875e-01,2.680e-01
5.925e-01,2.814e-01
5.975e-01,2.954e-01
6.025e-01,3.102e-01
6.075e-01,3.256e-01
6.125e-01,3.418e-01
6.175e-01,3.587e-01
6.225e-01,3.764e-01
6.275e-01,3.950e-01
6.325e-01,4.145e-01
6.375e-01,4.348e-01
6.425e-01,4.562e-01
6.475e-01,4.786e-01
6.525e-01,5.021e-01
6.575e-01,5.267e-01
6.625e-01,5.525e-01
6.675e-01,5.795e-01
6.725e-01,6.079e-01
6.775e-01,6.377e-01
6.825e-01,6.689e-01
6.875e-01,7.017e-01
6.925e-01,7.361e-01
6.975e-01,7.722e-01
7.025e-01,8.101e-01
7.075e-01,8.499e-01
7.125e-01,8.918e-01
7.175e-01,9.358e-01
7.225e-01,9.821e-01
7.275e-01,1.031e+00
7.325e-01,1.082e+00
7.375e-01,1.136e+00
7.425e-01,1.193e+00
7.475e-01,1.253e+00
7.525e-01,1.316e+00
7.575e-01,1.382e+00
7.625e-01,1.452e+00
7.675e-01,1.527e+00
7.725e-01,1.605e+00
7.775e-01,1.688e+00
7.825e-01,1.776e+00
7.875e-01,1.869e+00
7.925e-01,1.968e+00
7.975e-01,2.072e+00
8.025e-01,2.184e+00
8.075e-01,2.302e+00
8.125e-01,2.428e+00
8.175e-01,2.563e+00
8.225e-01,2.706e+00
8.275e-01,2.860e+00
8.325e-01,3.025e+00
8.375e-01,3.202e+00
8.425e-01,3.392e+00
8.475e-01,3.598e+00
8.525e-01,3.821e+00
8.575e-01,4.062e+00
8.625e-01,4.326e+00
8.675e-01,4.614e+00
8.725e-01,4.931e+00
8.775e-01,5.282e+00
8.825e-01,5.673e+00
8.875e-01,6.113e+00
8.925e-01,6.612e+00
8.975e-01,7.186e+00
9.025e-01,7.859e+00
9.075e-01,8.667e+00
9.125e-01,9.673e+00
9.175e-01,1.100e+01
9.225e-01,1.293e+01
9.275e-01,1.653e+01
9.325e-01,0.000e+00
9.375e-01,0.000e+00
9.425e-01,0.000e+00
9.475e-01,0.000e+00
9.525e-01,0.000e+00
9.575e-01,0.000e+00
9.625e-01,0.000e+00
9.675e-01,0.000e+00
9.725e-01,0.000e+00
9.775e-01,0.000e+00
9.825e-01,0.000e+00
9.875e-01,0.000e+00
9.925e-01,0.000e+00
9.975e-01,0.000e+00
