transmittance,probability_density
2.500e-03,6.642e-10
7.500e-03,1.039e-08
1.250e-02,4.080e-08
1.750e-02,1.043e-07
2.250e-02,2.148e-07
2.750e-02,3.881e-07
3.250e-02,6.418e-07
3.750e-02,9.957e-07
4.250e-02,1.472e-06
4.750e-02,2.093e-06
5.250e-02,2.888e-06
5.750e-02,3.885e-06
6.250e-02,5.115e-06
6.750e-02,6.614e-06
7.250e-02,8.419e-06
7.750e-02,1.057e-05
8.250e-02,1.312e-05
8.750e-02,1.610e-05
9.250e-02,1.958e-05
9.750e-02,2.360e-05
1.025e-01,2.823e-05
1.075e-01,3.354e-05
1.125e-01,3.958e-05
1.175e-01,4.644e-05
1.225e-01,5.420e-05
1.275e-01,6.293e-05
1.325e-01,7.274e-05
1.375e-01,8.371e-05
1.425e-01,9.595e-05
1.475e-01,1.096e-04
1.525e-01,1.247e-04
1.575e-01,1.414e-04
1.625e-01,1.599e-04
1.675e-01,1.803e-04
1.725e-01,2.028e-04
1.775e-01,2.274e-04
1.825e-01,2.544e-04
1.875e-01,2.840e-04
1.925e-01,3.163e-04
1.975e-01,3.515e-04
2.025e-01,3.899e-04
2.075e-01,4.316e-04
2.125e-01,4.770e-04
2.175e-01,5.263e-04
2.225e-01,5.796e-04
2.275e-01,6.374e-04
2.325e-01,6.999e-04
2.375e-01,7.674e-04
2.425e-01,8.402e-04
2.475e-01,9.188e-04
2.525e-01,1.003e-03
2.575e-01,1.094e-03
2.625e-01,1.192e-03
2.675e-01,1.298e-03
2.725e-01,1.411e-03
2.775e-01,1.532e-03
2.825e-01,1.662e-03
2.875e-01,1.801e-03
2.925e-01,1.950e-03
2.975e-01,2.110e-03
3.025e-01,2.280e-03
3.075e-01,2.463e-03
3.125e-01,2.657e-03
3.175e-01,2.865e-03
3.225e-01,3.087e-03
3.275e-01,3.323e-03
3.325e-01,3.575e-03
3.375e-01,3.844e-03
3.425e-01,4.130e-03
3.475e-01,4.434e-03
3.525e-01,4.758e-03
3.575e-01,5.102e-03
3.625e-01,5.468e-03
3.675e-01,5.857e-03
3.725e-01,6.270e-03
3.775e-01,6.709e-03
3.825e-01,7.174e-03
3.875e-01,7.668e-03
3.925e-01,8.193e-03
3.975e-01,8.749e-03
4.025e-01,9.338e-03
4.075e-01,9.963e-03
4.125e-01,1.062e-02
4.175e-01,1.133e-02
4.225e-01,1.207e-02
4.275e-01,1.285e-02
4.325e-01,1.369e-02
4.375e-01,1.457e-02
4.425e-01,1.550e-02
4.475e-01,1.649e-02
4.525e-01,1.753e-02
4.575e-01,1.863e-02
4.625e-01,1.980e-02
4.675e-01,2.103e-02
4.725e-01,2.233e-02
4.775e-01,2.371e-02
4.825e-01,2.516e-02
4.875e-01,2.670e-02
4.925e-01,2.832e-02
4.975e-01,3.004e-02
5.025e-01,3.185e-02
5.075e-01,3.376e-02
5.125e-01,3.578e-02
5.175e-01,3.792e-02
5.225e-01,4.017e-02
5.275e-01,4.254e-02
5.325e-01,4.505e-02
5.375e-01,4.770e-02
5.425e-01,5.050e-02
5.475e-01,5.345e-02
5.525e-01,5.656e-02
5.575e-01,5.985e-02
5.625e-01,6.332e-02
5.675e-01,6.698e-02
5.725e-01,7.085e-02
5.775e-01,7.493e-02
5.825e-01,7.924e-02
5.875e-01,8.378e-02
5.925e-01,8.858e-02
5.975e-01,9.365e-02
6.025e-01,9.899e-02
6.075e-01,1.046e-01
6.125e-01,1.106e-01
6.175e-01,1.169e-01
6.225e-01,1.235e-01
6.275e-01,1.306e-01
6.325e-01,1.380e-01
6.375e-01,1.458e-01
6.425e-01,1.541e-01
6.475e-01,1.628e-01
6.525e-01,1.721e-01
6.575e-01,1.818e-01
6.625e-01,1.922e-01
6.675e-01,2.031e-01
6.725e-01,2.146e-01
6.775e-01,2.269e-01
6.825e-01,2.398e-01
6.875e-01,2.535e-01
6.925e-01,2.680e-01
6.975e-01,2.833e-01
7.025e-01,2.995e-01
7.075e-01,3.168e-01
7.125e-01,3.350e-01
7.175e-01,3.544e-01
7.225e-01,3.749e-01
7.275e-01,3.967e-01
7.325e-01,4.198e-01
7.375e-01,4.443e-01
7.425e-01,4.704e-01
7.475e-01,4.981e-01
7.525e-01,5.276e-01
7.575e-01,5.590e-01
7.625e-01,5.924e-01
7.675e-01,6.280e-01
7.725e-01,6.659e-01
7.775e-01,7.064e-01
7.825e-01,7.496e-01
7.875e-01,7.958e-01
7.925e-01,8.451e-01
7.975e-01,8.979e-01
8.025e-01,9.544e-01
8.075e-01,1.015e+00
8.125e-01,1.080e+00
8.175e-01,1.150e+00
8.225e-01,1.225e+00
8.275e-01,1.306e+00
8.325e-01,1.393e+00
8.375e-01,1.487e+00
8.425e-01,1.589e+00
8.475e-01,1.699e+00
8.525e-01,1.819e+00
8.575e-01,1.949e+00
8.625e-01,2.090e+00
8.675e-01,2.245e+00
8.725e-01,2.414e+00
8.775e-01,2.600e+00
8.825e-01,2.805e+00
8.875e-01,3.031e+00
8.925e-01,3.282e+00
8.975e-01,3.562e+00
9.025e-01,3.875e+00
9.075e-01,4.228e+00
9.125e-01,4.627e+00
9.175e-01,5.084e+00
9.225e-01,5.611e+00
9.275e-01,6.225e+00
9.325e-01,6.952e+00
9.375e-01,7.827e+00
9.425e-01,8.906e+00
9.475e-01,1.028e+01
9.525e-01,1.212e+01
9.575e-01,1.477e+01
9.625e-01,1.923e+01
9.675e-01,3.092e+01
9.725e-01,0.000e+00
9.775e-01,0.000e+00
9.825e-01,0.000e+00
9.875e-01,0.000e+00
9.925e-01,0.000e+00
9.975e-01,0.000e+00
