transmittance,probability_density
2.500e-03,4.252e-10
7.500e-03,6.596e-09
1.250e-02,2.592e-08
1.750e-02,6.635e-08
2.250e-02,1.370e-07
2.750e-02,2.481e-07
3.250e-02,4.113e-07
3.750e-02,6.396e-07
4.250e-02,9.476e-07
4.750e-02,1.351e-06
5.250e-02,1.869e-06
5.750e-02,2.520e-06
6.250e-02,3.326e-06
6.750e-02,4.311e-06
7.250e-02,5.500e-06
7.750e-02,6.922e-06
8.250e-02,8.608e-06
8.750e-02,1.059e-05
9.250e-02,1.290e-05
9.750e-02,1.559e-05
1.025e-01,1.869e-05
1.075e-01,2.225e-05
1.125e-01,2.631e-05
1.175e-01,3.093e-05
1.225e-01,3.617e-05
1.275e-01,4.209e-05
1.325e-01,4.874e-05
1.375e-01,5.621e-05
1.425e-01,6.455e-05
1.475e-01,7.386e-05
1.525e-01,8.421e-05
1.575e-01,9.570e-05
1.625e-01,1.084e-04
1.675e-01,1.225e-04
1.725e-01,1.380e-04
1.775e-01,1.550e-04
1.825e-01,1.737e-04
1.875e-01,1.943e-04
1.925e-01,2.168e-04
1.975e-01,2.414e-04
2.025e-01,2.682e-04
2.075e-01,2.975e-04
2.125e-01,3.293e-04
2.175e-01,3.639e-04
2.225e-01,4.016e-04
2.275e-01,4.423e-04
2.325e-01,4.866e-04
2.375e-01,5.344e-04
2.425e-01,5.861e-04
2.475e-01,6.420e-04
2.525e-01,7.024e-04
2.575e-01,7.674e-04
2.625e-01,8.375e-04
2.675e-01,9.130e-04
2.725e-01,9.942e-04
2.775e-01,1.081e-03
2.825e-01,1.175e-03
2.875e-01,1.276e-03
2.925e-01,1.384e-03
2.975e-01,1.499e-03
3.025e-01,1.623e-03
3.075e-01,1.756e-03
3.125e-01,1.898e-03
3.175e-01,2.050e-03
3.225e-01,2.212e-03
3.275e-01,2.385e-03
3.325e-01,2.570e-03
3.375e-01,2.768e-03
3.425e-01,2.979e-03
3.475e-01,3.204e-03
3.525e-01,3.443e-03
3.575e-01,3.698e-03
3.625e-01,3.970e-03
3.675e-01,4.259e-03
3.725e-01,4.567e-03
3.775e-01,4.895e-03
3.825e-01,5.243e-03
3.875e-01,5.613e-03
3.925e-01,6.007e-03
3.975e-01,6.425e-03
4.025e-01,6.869e-03
4.075e-01,7.340e-03
4.125e-01,7.841e-03
4.175e-01,8.372e-03
4.225e-01,8.936e-03
4.275e-01,9.533e-03
4.325e-01,1.017e-02
4.375e-01,1.084e-02
4.425e-01,1.155e-02
4.475e-01,1.231e-02
4.525e-01,1.311e-02
4.575e-01,1.395e-02
4.625e-01,1.485e-02
4.675e-01,1.580e-02
4.725e-01,1.681e-02
4.775e-01,1.787e-02
4.825e-01,1.900e-02
4.875e-01,2.020e-02
4.925e-01,2.146e-02
4.975e-01,2.280e-02
5.025e-01,2.421e-02
5.075e-01,2.571e-02
5.125e-01,2.729e-02
5.175e-01,2.897e-02
5.225e-01,3.074e-02
5.275e-01,3.261e-02
5.325e-01,3.459e-02
5.375e-01,3.669e-02
5.425e-01,3.891e-02
5.475e-01,4.125e-02
5.525e-01,4.373e-02
5.575e-01,4.635e-02
5.625e-01,4.912e-02
5.675e-01,5.205e-02
5.725e-01,5.515e-02
5.775e-01,5.843e-02
5.825e-01,6.189e-02
5.875e-01,6.556e-02
5.925e-01,6.943e-02
5.975e-01,7.353e-02
6.025e-01,7.787e-02
6.075e-01,8.245e-02
6.125e-01,8.730e-02
6.175e-01,9.244e-02
6.225e-01,9.787e-02
6.275e-01,1.036e-01
6.325e-01,1.097e-01
6.375e-01,1.161e-01
6.425e-01,1.229e-01
6.475e-01,1.302e-01
6.525e-01,1.378e-01
6.575e-01,1.459e-01
6.625e-01,1.545e-01
6.675e-01,1.636e-01
6.725e-01,1.732e-01
6.775e-01,1.834e-01
6.825e-01,1.942e-01
6.875e-01,2.057e-01
6.925e-01,2.179e-01
6.975e-01,2.308e-01
7.025e-01,2.445e-01
7.075e-01,2.590e-01
7.125e-01,2.745e-01
7.175e-01,2.909e-01
7.225e-01,3.084e-01
7.275e-01,3.270e-01
7.325e-01,3.467e-01
7.375e-01,3.677e-01
7.425e-01,3.901e-01
7.475e-01,4.140e-01
7.525e-01,4.394e-01
7.575e-01,4.665e-01
7.625e-01,4.954e-01
7.675e-01,5.263e-01
7.725e-01,5.593e-01
7.775e-01,5.945e-01
7.825e-01,6.323e-01
7.875e-01,6.726e-01
7.925e-01,7.159e-01
7.975e-01,7.623e-01
8.025e-01,8.121e-01
8.075e-01,8.656e-01
8.125e-01,9.232e-01
8.175e-01,9.851e-01
8.225e-01,1.052e+00
8.275e-01,1.124e+00
8.325e-01,1.202e+00
8.375e-01,1.286e+00
8.425e-01,1.377e+00
8.475e-01,1.476e+00
8.525e-01,1.584e+00
8.575e-01,1.702e+00
8.625e-01,1.830e+00
8.675e-01,1.970e+00
8.725e-01,2.124e+00
8.775e-01,2.293e+00
8.825e-01,2.479e+00
8.875e-01,2.686e+00
8.925e-01,2.915e+00
8.975e-01,3.171e+00
9.025e-01,3.458e+00
9.075e-01,3.780e+00
9.125e-01,4.146e+00
9.175e-01,4.564e+00
9.225e-01,5.045e+00
9.275e-01,5.603e+00
9.325e-01,6.261e+00
9.375e-01,7.046e+00
9.425e-01,8.002e+00
9.475e-01,9.196e+00
9.525e-01,1.074e+01
9.575e-01,1.285e+01
9.625e-01,1.599e+01
9.675e-01,2.158e+01
9.725e-01,4.004e+01
9.775e-01,0.000e+00
9.825e-01,0.000e+00
9.875e-01,0.000e+00
9.925e-01,0.000e+00
9.975e-01,0.000e+00
