transmittance,probability_density
2.500e-03,2.366e-08
7.500e-03,3.772e-07
1.250e-02,1.448e-06
1.750e-02,3.593e-06
2.250e-02,7.184e-06
2.750e-02,1.260e-05
3.250e-02,2.026e-05
3.750e-02,3.057e-05
4.250e-02,4.399e-05
4.750e-02,6.099e-05
5.250e-02,8.207e-05
5.750e-02,1.078e-04
6.250e-02,1.386e-04
6.750e-02,1.751e-04
7.250e-02,2.180e-04
7.750e-02,2.678e-04
8.250e-02,3.253e-04
8.750e-02,3.911e-04
9.250e-02,4.659e-04
9.750e-02,5.504e-04
1.025e-01,6.456e-04
1.075e-01,7.522e-04
1.125e-01,8.710e-04
1.175e-01,1.003e-03
1.225e-01,1.149e-03
1.275e-01,1.310e-03
1.325e-01,1.487e-03
1.375e-01,1.681e-03
1.425e-01,1.894e-03
1.475e-01,2.126e-03
1.525e-01,2.378e-03
1.575e-01,2.652e-03
1.625e-01,2.949e-03
1.675e-01,3.271e-03
1.725e-01,3.618e-03
1.775e-01,3.992e-03
1.825e-01,4.395e-03
1.875e-01,4.828e-03
1.925e-01,5.293e-03
1.975e-01,5.791e-03
2.025e-01,6.324e-03
2.075e-01,6.894e-03
2.125e-01,7.503e-03
2.175e-01,8.153e-03
2.225e-01,8.845e-03
2.275e-01,9.581e-03
2.325e-01,1.036e-02
2.375e-01,1.120e-02
2.425e-01,1.208e-02
2.475e-01,1.302e-02
2.525e-01,1.401e-02
2.575e-01,1.506e-02
2.625e-01,1.618e-02
2.675e-01,1.735e-02
2.725e-01,1.860e-02
2.775e-01,1.991e-02
2.825e-01,2.130e-02
2.875e-01,2.276e-02
2.925e-01,2.430e-02
2.975e-01,2.592e-02
3.025e-01,2.763e-02
3.075e-01,2.942e-02
3.125e-01,3.131e-02
3.175e-01,3.330e-02
3.225e-01,3.539e-02
3.275e-01,3.758e-02
3.325e-01,3.988e-02
3.375e-01,4.230e-02
3.425e-01,4.483e-02
3.475e-01,4.749e-02
3.525e-01,5.027e-02
3.575e-01,5.318e-02
3.625e-01,5.624e-02
3.675e-01,5.943e-02
3.725e-01,6.278e-02
3.775e-01,6.628e-02
3.825e-01,6.994e-02
3.875e-01,7.377e-02
3.925e-01,7.777e-02
3.975e-01,8.195e-02
4.025e-01,8.631e-02
4.075e-01,9.088e-02
4.125e-01,9.564e-02
4.175e-01,1.006e-01
4.225e-01,1.058e-01
4.275e-01,1.112e-01
4.325e-01,1.169e-01
4.375e-01,1.227e-01
4.425e-01,1.289e-01
4.475e-01,1.353e-01
4.525e-01,1.420e-01
4.575e-01,1.489e-01
4.625e-01,1.562e-01
4.675e-01,1.637e-01
4.725e-01,1.716e-01
4.775e-01,1.798e-01
4.825e-01,1.883e-01
4.875e-01,1.972e-01
4.925e-01,2.064e-01
4.975e-01,2.161e-01
5.025e-01,2.261e-01
5.075e-01,2.365e-01
5.125e-01,2.474e-01
5.175e-01,2.587e-01
5.225e-01,2.704e-01
5.275e-01,2.827e-01
5.325e-01,2.954e-01
5.375e-01,3.086e-01
5.425e-01,3.224e-01
5.475e-01,3.367e-01
5.525e-01,3.516e-01
5.575e-01,3.671e-01
5.625e-01,3.832e-01
5.675e-01,4.000e-01
5.725e-01,4.174e-01
5.775e-01,4.355e-01
5.825e-01,4.544e-01
5.875e-01,4.740e-01
5.925e-01,4.944e-01
5.975e-01,5.156e-01
6.025e-01,5.377e-01
6.075e-01,5.606e-01
6.125e-01,5.845e-01
6.175e-01,6.094e-01
6.225e-01,6.352e-01
6.275e-01,6.621e-01
6.325e-01,6.901e-01
6.375e-01,7.193e-01
6.425e-01,7.496e-01
6.475e-01,7.812e-01
6.525e-01,8.141e-01
6.575e-01,8.483e-01
6.625e-01,8.839e-01
6.675e-01,9.211e-01
6.725e-01,9.598e-01
6.775e-01,1.000e+00
6.825e-01,1.042e+00
6.875e-01,1.086e+00
6.925e-01,1.132e+00
6.975e-01,1.179e+00
7.025e-01,1.229e+00
7.075e-01,1.281e+00
7.125e-01,1.335e+00
7.175e-01,1.392e+00
7.225e-01,1.451e+00
7.275e-01,1.513e+00
7.325e-01,1.578e+00
7.375e-01,1.645e+00
7.425e-01,1.716e+00
7.475e-01,1.790e+00
7.525e-01,1.868e+00
7.575e-01,1.950e+00
7.625e-01,2.035e+00
7.675e-01,2.125e+00
7.725e-01,2.220e+00
7.775e-01,2.319e+00
7.825e-01,2.424e+00
7.875e-01,2.535e+00
7.925e-01,2.651e+00
7.975e-01,2.774e+00
8.025e-01,2.905e+00
8.075e-01,3.043e+00
8.125e-01,3.189e+00
8.175e-01,3.345e+00
8.225e-01,3.511e+00
8.275e-01,3.688e+00
8.325e-01,3.878e+00
8.375e-01,4.082e+00
8.425e-01,4.302e+00
8.475e-01,4.539e+00
8.525e-01,4.797e+00
8.575e-01,5.079e+00
8.625e-01,5.389e+00
8.675e-01,5.733e+00
8.725e-01,6.118e+00
8.775e-01,6.554e+00
8.825e-01,7.056e+00
8.875e-01,7.648e+00
8.925e-01,8.369e+00
8.975e-01,9.295e+00
9.025e-01,1.060e+01
9.075e-01,1.289e+01
9.125e-01,0.000e+00
9.175e-01,0.000e+00
9.225e-01,0.000e+00
9.275e-01,0.000e+00
9.325e-01,0.000e+00
9.375e-01,0.000e+00
9.425e-01,0.000e+00
9.475e-01,0.000e+00
9.525e-01,0.000e+00
9.575e-01,0.000e+00
9.625e-01,0.000e+00
9.675e-01,0.000e+00
9.725e-01,0.000e+00
9.775e-01,0.000e+00
9.825e-01,0.000e+00
9.875e-01,0.000e+00
9.925e-01,0.000e+00
9.975e-01,0.000e+00
