transmittance,probability_density
2.500e-03,6.106e-09
7.500e-03,9.796e-08
1.250e-02,3.818e-07
1.750e-02,9.625e-07
2.250e-02,1.952e-06
2.750e-02,3.473e-06
3.250e-02,5.655e-06
3.750e-02,8.640e-06
4.250e-02,1.258e-05
4.750e-02,1.764e-05
5.250e-02,2.399e-05
5.750e-02,3.182e-05
6.250e-02,4.134e-05
6.750e-02,5.275e-05
7.250e-02,6.628e-05
7.750e-02,8.218e-05
8.250e-02,1.007e-04
8.750e-02,1.221e-04
9.250e-02,1.467e-04
9.750e-02,1.748e-04
1.025e-01,2.066e-04
1.075e-01,2.426e-04
1.125e-01,2.832e-04
1.175e-01,3.286e-04
1.225e-01,3.792e-04
1.275e-01,4.356e-04
1.325e-01,4.981e-04
1.375e-01,5.672e-04
1.425e-01,6.433e-04
1.475e-01,7.271e-04
1.525e-01,8.190e-04
1.575e-01,9.195e-04
1.625e-01,1.029e-03
1.675e-01,1.149e-03
1.725e-01,1.279e-03
1.775e-01,1.421e-03
1.825e-01,1.574e-03
1.875e-01,1.740e-03
1.925e-01,1.920e-03
1.975e-01,2.113e-03
2.025e-01,2.322e-03
2.075e-01,2.547e-03
2.125e-01,2.788e-03
2.175e-01,3.048e-03
2.225e-01,3.326e-03
2.275e-01,3.625e-03
2.325e-01,3.944e-03
2.375e-01,4.285e-03
2.425e-01,4.650e-03
2.475e-01,5.039e-03
2.525e-01,5.455e-03
2.575e-01,5.897e-03
2.625e-01,6.368e-03
2.675e-01,6.870e-03
2.725e-01,7.403e-03
2.775e-01,7.969e-03
2.825e-01,8.570e-03
2.875e-01,9.208e-03
2.925e-01,9.885e-03
2.975e-01,1.060e-02
3.025e-01,1.136e-02
3.075e-01,1.217e-02
3.125e-01,1.302e-02
3.175e-01,1.391e-02
3.225e-01,1.486e-02
3.275e-01,1.587e-02
3.325e-01,1.693e-02
3.375e-01,1.805e-02
3.425e-01,1.923e-02
3.475e-01,2.047e-02
3.525e-01,2.178e-02
3.575e-01,2.317e-02
3.625e-01,2.462e-02
3.675e-01,2.615e-02
3.725e-01,2.777e-02
3.775e-01,2.946e-02
3.825e-01,3.125e-02
3.875e-01,3.313e-02
3.925e-01,3.510e-02
3.975e-01,3.717e-02
4.025e-01,3.935e-02
4.075e-01,4.164e-02
4.125e-01,4.404e-02
4.175e-01,4.656e-02
4.225e-01,4.921e-02
4.275e-01,5.198e-02
4.325e-01,5.489e-02
4.375e-01,5.795e-02
4.425e-01,6.115e-02
4.475e-01,6.450e-02
4.525e-01,6.802e-02
4.575e-01,7.171e-02
4.625e-01,7.557e-02
4.675e-01,7.961e-02
4.725e-01,8.385e-02
4.775e-01,8.829e-02
4.825e-01,9.294e-02
4.875e-01,9.780e-02
4.925e-01,1.029e-01
4.975e-01,1.082e-01
5.025e-01,1.138e-01
5.075e-01,1.196e-01
5.125e-01,1.257e-01
5.175e-01,1.321e-01
5.225e-01,1.388e-01
5.275e-01,1.458e-01
5.325e-01,1.531e-01
5.375e-01,1.608e-01
5.425e-01,1.688e-01
5.475e-01,1.771e-01
5.525e-01,1.859e-01
5.575e-01,1.950e-01
5.625e-01,2.046e-01
5.675e-01,2.146e-01
5.725e-01,2.251e-01
5.775e-01,2.360e-01
5.825e-01,2.475e-01
5.875e-01,2.594e-01
5.925e-01,2.719e-01
5.975e-01,2.850e-01
6.025e-01,2.987e-01
6.075e-01,3.130e-01
6.125e-01,3.280e-01
6.175e-01,3.437e-01
6.225e-01,3.600e-01
6.275e-01,3.772e-01
6.325e-01,3.951e-01
6.375e-01,4.139e-01
6.425e-01,4.335e-01
6.475e-01,4.541e-01
6.525e-01,4.756e-01
6.575e-01,4.981e-01
6.625e-01,5.217e-01
6.675e-01,5.464e-01
6.725e-01,5.722e-01
6.775e-01,5.993e-01
6.825e-01,6.277e-01
6.875e-01,6.575e-01
6.925e-01,6.887e-01
6.975e-01,7.214e-01
7.025e-01,7.557e-01
7.075e-01,7.917e-01
7.125e-01,8.295e-01
7.175e-01,8.692e-01
7.225e-01,9.109e-01
7.275e-01,9.547e-01
7.325e-01,1.001e+00
7.375e-01,1.049e+00
7.425e-01,1.100e+00
7.475e-01,1.154e+00
7.525e-01,1.210e+00
7.575e-01,1.269e+00
7.625e-01,1.332e+00
7.675e-01,1.398e+00
7.725e-01,1.468e+00
7.775e-01,1.542e+00
7.825e-01,1.620e+00
7.875e-01,1.702e+00
7.925e-01,1.789e+00
7.975e-01,1.882e+00
8.025e-01,1.980e+00
8.075e-01,2.084e+00
8.125e-01,2.195e+00
8.175e-01,2.313e+00
8.225e-01,2.439e+00
8.275e-01,2.574e+00
8.325e-01,2.717e+00
8.375e-01,2.871e+00
8.425e-01,3.037e+00
8.475e-01,3.215e+00
8.525e-01,3.407e+00
8.575e-01,3.615e+00
8.625e-01,3.840e+00
8.675e-01,4.086e+00
8.725e-01,4.354e+00
8.775e-01,4.649e+00
8.825e-01,4.975e+00
8.875e-01,5.338e+00
8.925e-01,5.744e+00
8.975e-01,6.204e+00
9.025e-01,6.730e+00
9.075e-01,7.343e+00
9.125e-01,8.071e+00
9.175e-01,8.961e+00
9.225e-01,1.010e+01
9.275e-01,1.165e+01
9.325e-01,1.411e+01
9.375e-01,1.999e+01
9.425e-01,0.000e+00
9.475e-01,0.000e+00
9.525e-01,0.000e+00
9.575e-01,0.000e+00
9.625e-01,0.000e+00
9.675e-01,0.000e+00
9.725e-01,0.000e+00
9.775e-01,0.000e+00
9.825e-01,0.000e+00
9.875e-01,0.000e+00
9.925e-01,0.000e+00
9.975e-01,0.000e+00
