transmittance,probability_density
2.500e-03,1.095e-10
7.500e-03,1.656e-09
1.250e-02,6.501e-09
1.750e-02,1.671e-08
2.250e-02,3.470e-08
2.750e-02,6.325e-08
3.250e-02,1.056e-07
3.750e-02,1.653e-07
4.250e-02,2.466e-07
4.750e-02,3.542e-07
5.250e-02,4.932e-07
5.750e-02,6.695e-07
6.250e-02,8.896e-07
6.750e-02,1.161e-06
7.250e-02,1.490e-06
7.750e-02,1.888e-06
8.250e-02,2.363e-06
8.750e-02,2.925e-06
9.250e-02,3.586e-06
9.750e-02,4.360e-06
1.025e-01,5.258e-06
1.075e-01,6.297e-06
1.125e-01,7.491e-06
1.175e-01,8.860e-06
1.225e-01,1.042e-05
1.275e-01,1.219e-05
1.325e-01,1.420e-05
1.375e-01,1.647e-05
1.425e-01,1.902e-05
1.475e-01,2.189e-05
1.525e-01,2.510e-05
1.575e-01,2.868e-05
1.625e-01,3.267e-05
1.675e-01,3.710e-05
1.725e-01,4.202e-05
1.775e-01,4.747e-05
1.825e-01,5.349e-05
1.875e-01,6.013e-05
1.925e-01,6.744e-05
1.975e-01,7.549e-05
2.025e-01,8.432e-05
2.075e-01,9.400e-05
2.125e-01,1.046e-04
2.175e-01,1.162e-04
2.225e-01,1.289e-04
2.275e-01,1.427e-04
2.325e-01,1.577e-04
2.375e-01,1.741e-04
2.425e-01,1.920e-04
2.475e-01,2.113e-04
2.525e-01,2.324e-04
2.575e-01,2.551e-04
2.625e-01,2.798e-04
2.675e-01,3.066e-04
2.725e-01,3.355e-04
2.775e-01,3.667e-04
2.825e-01,4.005e-04
2.875e-01,4.369e-04
2.925e-01,4.762e-04
2.975e-01,5.186e-04
3.025e-01,5.642e-04
3.075e-01,6.133e-04
3.125e-01,6.661e-04
3.175e-01,7.229e-04
3.225e-01,7.839e-04
3.275e-01,8.495e-04
3.325e-01,9.199e-04
3.375e-01,9.954e-04
3.425e-01,1.076e-03
3.475e-01,1.163e-03
3.525e-01,1.256e-03
3.575e-01,1.356e-03
3.625e-01,1.463e-03
3.675e-01,1.577e-03
3.725e-01,1.699e-03
3.775e-01,1.830e-03
3.825e-01,1.969e-03
3.875e-01,2.119e-03
3.925e-01,2.278e-03
3.975e-01,2.449e-03
4.025e-01,2.631e-03
4.075e-01,2.825e-03
4.125e-01,3.032e-03
4.175e-01,3.253e-03
4.225e-01,3.489e-03
4.275e-01,3.740e-03
4.325e-01,4.009e-03
4.375e-01,4.294e-03
4.425e-01,4.599e-03
4.475e-01,4.924e-03
4.525e-01,5.269e-03
4.575e-01,5.637e-03
4.625e-01,6.030e-03
4.675e-01,6.447e-03
4.725e-01,6.892e-03
4.775e-01,7.365e-03
4.825e-01,7.868e-03
4.875e-01,8.404e-03
4.925e-01,8.975e-03
4.975e-01,9.581e-03
5.025e-01,1.023e-02
5.075e-01,1.091e-02
5.125e-01,1.164e-02
5.175e-01,1.242e-02
5.225e-01,1.325e-02
5.275e-01,1.413e-02
5.325e-01,1.506e-02
5.375e-01,1.605e-02
5.425e-01,1.711e-02
5.475e-01,1.823e-02
5.525e-01,1.943e-02
5.575e-01,2.070e-02
5.625e-01,2.205e-02
5.675e-01,2.349e-02
5.725e-01,2.502e-02
5.775e-01,2.664e-02
5.825e-01,2.837e-02
5.875e-01,3.021e-02
5.925e-01,3.216e-02
5.975e-01,3.424e-02
6.025e-01,3.645e-02
6.075e-01,3.881e-02
6.125e-01,4.131e-02
6.175e-01,4.398e-02
6.225e-01,4.682e-02
6.275e-01,4.984e-02
6.325e-01,5.305e-02
6.375e-01,5.648e-02
6.425e-01,6.012e-02
6.475e-01,6.400e-02
6.525e-01,6.814e-02
6.575e-01,7.255e-02
6.625e-01,7.725e-02
6.675e-01,8.226e-02
6.725e-01,8.760e-02
6.775e-01,9.330e-02
6.825e-01,9.937e-02
6.875e-01,1.059e-01
6.925e-01,1.128e-01
6.975e-01,1.202e-01
7.025e-01,1.281e-01
7.075e-01,1.365e-01
7.125e-01,1.455e-01
7.175e-01,1.552e-01
7.225e-01,1.655e-01
7.275e-01,1.766e-01
7.325e-01,1.884e-01
7.375e-01,2.011e-01
7.425e-01,2.147e-01
7.475e-01,2.292e-01
7.525e-01,2.449e-01
7.575e-01,2.617e-01
7.625e-01,2.797e-01
7.675e-01,2.991e-01
7.725e-01,3.200e-01
7.775e-01,3.424e-01
7.825e-01,3.666e-01
7.875e-01,3.927e-01
7.925e-01,4.208e-01
7.975e-01,4.512e-01
8.025e-01,4.841e-01
8.075e-01,5.197e-01
8.125e-01,5.582e-01
8.175e-01,6.000e-01
8.225e-01,6.453e-01
8.275e-01,6.946e-01
8.325e-01,7.483e-01
8.375e-01,8.068e-01
8.425e-01,8.707e-01
8.475e-01,9.406e-01
8.525e-01,1.017e+00
8.575e-01,1.101e+00
8.625e-01,1.193e+00
8.675e-01,1.295e+00
8.725e-01,1.408e+00
8.775e-01,1.532e+00
8.825e-01,1.671e+00
8.875e-01,1.825e+00
8.925e-01,1.997e+00
8.975e-01,2.190e+00
9.025e-01,2.408e+00
9.075e-01,2.655e+00
9.125e-01,2.935e+00
9.175e-01,3.257e+00
9.225e-01,3.627e+00
9.275e-01,4.057e+00
9.325e-01,4.562e+00
9.375e-01,5.161e+00
9.425e-01,5.880e+00
9.475e-01,6.760e+00
9.525e-01,7.858e+00
9.575e-01,9.269e+00
9.625e-01,1.115e+01
9.675e-01,1.383e+01
9.725e-01,1.800e+01
9.775e-01,2.597e+01
9.825e-01,5.906e+01
9.875e-01,0.000e+00
9.925e-01,0.000e+00
9.975e-01,0.000e+00
