transmittance,probability_density
2.500e-03,4.338e-11
7.500e-03,6.456e-10
1.250e-02,2.531e-09
1.750e-02,6.522e-09
2.250e-02,1.359e-08
2.750e-02,2.486e-08
3.250e-02,4.168e-08
3.750e-02,6.554e-08
4.250e-02,9.820e-08
4.750e-02,1.416e-07
5.250e-02,1.981e-07
5.750e-02,2.700e-07
6.250e-02,3.603e-07
6.750e-02,4.720e-07
7.250e-02,6.087e-07
7.750e-02,7.742e-07
8.250e-02,9.728e-07
8.750e-02,1.209e-06
9.250e-02,1.488e-06
9.750e-02,1.816e-06
1.025e-01,2.199e-06
1.075e-01,2.644e-06
1.125e-01,3.157e-06
1.175e-01,3.748e-06
1.225e-01,4.425e-06
1.275e-01,5.197e-06
1.325e-01,6.075e-06
1.375e-01,7.071e-06
1.425e-01,8.196e-06
1.475e-01,9.464e-06
1.525e-01,1.089e-05
1.575e-01,1.249e-05
1.625e-01,1.427e-05
1.675e-01,1.627e-05
1.725e-01,1.849e-05
1.775e-01,2.096e-05
1.825e-01,2.370e-05
1.875e-01,2.673e-05
1.925e-01,3.008e-05
1.975e-01,3.379e-05
2.025e-01,3.787e-05
2.075e-01,4.236e-05
2.125e-01,4.729e-05
2.175e-01,5.271e-05
2.225e-01,5.865e-05
2.275e-01,6.515e-05
2.325e-01,7.226e-05
2.375e-01,8.004e-05
2.425e-01,8.852e-05
2.475e-01,9.777e-05
2.525e-01,1.078e-04
2.575e-01,1.188e-04
2.625e-01,1.307e-04
2.675e-01,1.437e-04
2.725e-01,1.577e-04
2.775e-01,1.730e-04
2.825e-01,1.895e-04
2.875e-01,2.074e-04
2.925e-01,2.268e-04
2.975e-01,2.477e-04
3.025e-01,2.704e-04
3.075e-01,2.949e-04
3.125e-01,3.213e-04
3.175e-01,3.498e-04
3.225e-01,3.805e-04
3.275e-01,4.137e-04
3.325e-01,4.494e-04
3.375e-01,4.878e-04
3.425e-01,5.292e-04
3.475e-01,5.737e-04
3.525e-01,6.215e-04
3.575e-01,6.729e-04
3.625e-01,7.282e-04
3.675e-01,7.876e-04
3.725e-01,8.513e-04
3.775e-01,9.197e-04
3.825e-01,9.930e-04
3.875e-01,1.072e-03
3.925e-01,1.156e-03
3.975e-01,1.246e-03
4.025e-01,1.343e-03
4.075e-01,1.447e-03
4.125e-01,1.558e-03
4.175e-01,1.677e-03
4.225e-01,1.805e-03
4.275e-01,1.941e-03
4.325e-01,2.087e-03
4.375e-01,2.243e-03
4.425e-01,2.410e-03
4.475e-01,2.588e-03
4.525e-01,2.779e-03
4.575e-01,2.983e-03
4.625e-01,3.200e-03
4.675e-01,3.433e-03
4.725e-01,3.682e-03
4.775e-01,3.947e-03
4.825e-01,4.231e-03
4.875e-01,4.534e-03
4.925e-01,4.858e-03
4.975e-01,5.204e-03
5.025e-01,5.572e-03
5.075e-01,5.966e-03
5.125e-01,6.387e-03
5.175e-01,6.836e-03
5.225e-01,7.315e-03
5.275e-01,7.826e-03
5.325e-01,8.372e-03
5.375e-01,8.955e-03
5.425e-01,9.577e-03
5.475e-01,1.024e-02
5.525e-01,1.095e-02
5.575e-01,1.171e-02
5.625e-01,1.251e-02
5.675e-01,1.337e-02
5.725e-01,1.429e-02
5.775e-01,1.528e-02
5.825e-01,1.632e-02
5.875e-01,1.744e-02
5.925e-01,1.864e-02
5.975e-01,1.991e-02
6.025e-01,2.128e-02
6.075e-01,2.273e-02
6.125e-01,2.429e-02
6.175e-01,2.595e-02
6.225e-01,2.772e-02
6.275e-01,2.962e-02
6.325e-01,3.165e-02
6.375e-01,3.382e-02
6.425e-01,3.613e-02
6.475e-01,3.861e-02
6.525e-01,4.126e-02
6.575e-01,4.410e-02
6.625e-01,4.714e-02
6.675e-01,5.039e-02
6.725e-01,5.387e-02
6.775e-01,5.760e-02
6.825e-01,6.159e-02
6.875e-01,6.587e-02
6.925e-01,7.046e-02
6.975e-01,7.538e-02
7.025e-01,8.066e-02
7.075e-01,8.633e-02
7.125e-01,9.241e-02
7.175e-01,9.895e-02
7.225e-01,1.060e-01
7.275e-01,1.135e-01
7.325e-01,1.217e-01
7.375e-01,1.304e-01
7.425e-01,1.398e-01
7.475e-01,1.500e-01
7.525e-01,1.609e-01
7.575e-01,1.727e-01
7.625e-01,1.854e-01
7.675e-01,1.992e-01
7.725e-01,2.140e-01
7.775e-01,2.301e-01
7.825e-01,2.475e-01
7.875e-01,2.664e-01
7.925e-01,2.869e-01
7.975e-01,3.091e-01
8.025e-01,3.332e-01
8.075e-01,3.595e-01
8.125e-01,3.881e-01
8.175e-01,4.192e-01
8.225e-01,4.532e-01
8.275e-01,4.904e-01
8.325e-01,5.311e-01
8.375e-01,5.757e-01
8.425e-01,6.246e-01
8.475e-01,6.785e-01
8.525e-01,7.377e-01
8.575e-01,8.032e-01
8.625e-01,8.756e-01
8.675e-01,9.558e-01
8.725e-01,1.045e+00
8.775e-01,1.144e+00
8.825e-01,1.255e+00
8.875e-01,1.379e+00
8.925e-01,1.519e+00
8.975e-01,1.677e+00
9.025e-01,1.855e+00
9.075e-01,2.059e+00
9.125e-01,2.291e+00
9.175e-01,2.559e+00
9.225e-01,2.869e+00
9.275e-01,3.231e+00
9.325e-01,3.656e+00
9.375e-01,4.162e+00
9.425e-01,4.772e+00
9.475e-01,5.515e+00
9.525e-01,6.440e+00
9.575e-01,7.617e+00
9.625e-01,9.162e+00
9.675e-01,1.128e+01
9.725e-01,1.437e+01
9.775e-01,1.940e+01
9.825e-01,2.967e+01
9.875e-01,9.020e+01
9.925e-01,0.000e+00
9.975e-01,0.000e+00
