transmittance,probability_density
2.500e-03,2.709e-11
7.500e-03,4.001e-10
1.250e-02,1.568e-09
1.750e-02,4.044e-09
2.250e-02,8.440e-09
2.750e-02,1.548e-08
3.250e-02,2.599e-08
3.750e-02,4.096e-08
4.250e-02,6.150e-08
4.750e-02,8.889e-08
5.250e-02,1.246e-07
5.750e-02,1.702e-07
6.250e-02,2.275e-07
6.750e-02,2.987e-07
7.250e-02,3.860e-07
7.750e-02,4.919e-07
8.250e-02,6.192e-07
8.750e-02,7.712e-07
9.250e-02,9.511e-07
9.750e-02,1.163e-06
1.025e-01,1.411e-06
1.075e-01,1.699e-06
1.125e-01,2.033e-06
1.175e-01,2.417e-06
1.225e-01,2.859e-06
1.275e-01,3.364e-06
1.325e-01,3.940e-06
1.375e-01,4.594e-06
1.425e-01,5.335e-06
1.475e-01,6.171e-06
1.525e-01,7.112e-06
1.575e-01,8.170e-06
1.625e-01,9.355e-06
1.675e-01,1.068e-05
1.725e-01,1.216e-05
1.775e-01,1.381e-05
1.825e-01,1.564e-05
1.875e-01,1.767e-05
1.925e-01,1.992e-05
1.975e-01,2.241e-05
2.025e-01,2.515e-05
2.075e-01,2.818e-05
2.125e-01,3.152e-05
2.175e-01,3.518e-05
2.225e-01,3.921e-05
2.275e-01,4.363e-05
2.325e-01,4.847e-05
2.375e-01,5.377e-05
2.425e-01,5.957e-05
2.475e-01,6.590e-05
2.525e-01,7.280e-05
2.575e-01,8.033e-05
2.625e-01,8.853e-05
2.675e-01,9.746e-05
2.725e-01,1.072e-04
2.775e-01,1.177e-04
2.825e-01,1.292e-04
2.875e-01,1.416e-04
2.925e-01,1.551e-04
2.975e-01,1.697e-04
3.025e-01,1.855e-04
3.075e-01,2.026e-04
3.125e-01,2.211e-04
3.175e-01,2.410e-04
3.225e-01,2.626e-04
3.275e-01,2.860e-04
3.325e-01,3.111e-04
3.375e-01,3.383e-04
3.425e-01,3.675e-04
3.475e-01,3.991e-04
3.525e-01,4.330e-04
3.575e-01,4.696e-04
3.625e-01,5.090e-04
3.675e-01,5.513e-04
3.725e-01,5.969e-04
3.775e-01,6.458e-04
3.825e-01,6.985e-04
3.875e-01,7.550e-04
3.925e-01,8.157e-04
3.975e-01,8.809e-04
4.025e-01,9.509e-04
4.075e-01,1.026e-03
4.125e-01,1.106e-03
4.175e-01,1.193e-03
4.225e-01,1.285e-03
4.275e-01,1.385e-03
4.325e-01,1.491e-03
4.375e-01,1.605e-03
4.425e-01,1.727e-03
4.475e-01,1.858e-03
4.525e-01,1.998e-03
4.575e-01,2.148e-03
4.625e-01,2.309e-03
4.675e-01,2.481e-03
4.725e-01,2.665e-03
4.775e-01,2.862e-03
4.825e-01,3.073e-03
4.875e-01,3.298e-03
4.925e-01,3.539e-03
4.975e-01,3.797e-03
5.025e-01,4.073e-03
5.075e-01,4.369e-03
5.125e-01,4.684e-03
5.175e-01,5.022e-03
5.225e-01,5.383e-03
5.275e-01,5.769e-03
5.325e-01,6.182e-03
5.375e-01,6.623e-03
5.425e-01,7.095e-03
5.475e-01,7.600e-03
5.525e-01,8.140e-03
5.575e-01,8.717e-03
5.625e-01,9.334e-03
5.675e-01,9.994e-03
5.725e-01,1.070e-02
5.775e-01,1.145e-02
5.825e-01,1.226e-02
5.875e-01,1.313e-02
5.925e-01,1.405e-02
5.975e-01,1.504e-02
6.025e-01,1.610e-02
6.075e-01,1.723e-02
6.125e-01,1.844e-02
6.175e-01,1.974e-02
6.225e-01,2.113e-02
6.275e-01,2.261e-02
6.325e-01,2.421e-02
6.375e-01,2.591e-02
6.425e-01,2.774e-02
6.475e-01,2.970e-02
6.525e-01,3.180e-02
6.575e-01,3.405e-02
6.625e-01,3.647e-02
6.675e-01,3.906e-02
6.725e-01,4.184e-02
6.775e-01,4.482e-02
6.825e-01,4.802e-02
6.875e-01,5.146e-02
6.925e-01,5.516e-02
6.975e-01,5.913e-02
7.025e-01,6.340e-02
7.075e-01,6.800e-02
7.125e-01,7.294e-02
7.175e-01,7.827e-02
7.225e-01,8.400e-02
7.275e-01,9.018e-02
7.325e-01,9.684e-02
7.375e-01,1.040e-01
7.425e-01,1.118e-01
7.475e-01,1.202e-01
7.525e-01,1.292e-01
7.575e-01,1.390e-01
7.625e-01,1.496e-01
7.675e-01,1.611e-01
7.725e-01,1.735e-01
7.775e-01,1.870e-01
7.825e-01,2.016e-01
7.875e-01,2.175e-01
7.925e-01,2.347e-01
7.975e-01,2.535e-01
8.025e-01,2.740e-01
8.075e-01,2.964e-01
8.125e-01,3.208e-01
8.175e-01,3.474e-01
8.225e-01,3.766e-01
8.275e-01,4.086e-01
8.325e-01,4.437e-01
8.375e-01,4.822e-01
8.425e-01,5.247e-01
8.475e-01,5.715e-01
8.525e-01,6.233e-01
8.575e-01,6.805e-01
8.625e-01,7.440e-01
8.675e-01,8.147e-01
8.725e-01,8.934e-01
8.775e-01,9.813e-01
8.825e-01,1.080e+00
8.875e-01,1.191e+00
8.925e-01,1.316e+00
8.975e-01,1.457e+00
9.025e-01,1.618e+00
9.075e-01,1.801e+00
9.125e-01,2.012e+00
9.175e-01,2.255e+00
9.225e-01,2.538e+00
9.275e-01,2.868e+00
9.325e-01,3.258e+00
9.375e-01,3.723e+00
9.425e-01,4.284e+00
9.475e-01,4.969e+00
9.525e-01,5.822e+00
9.575e-01,6.907e+00
9.625e-01,8.326e+00
9.675e-01,1.026e+01
9.725e-01,1.303e+01
9.775e-01,1.740e+01
9.825e-01,2.555e+01
9.875e-01,5.031e+01
9.925e-01,0.000e+00
9.975e-01,0.000e+00
