transmittance,probability_density
2.500e-03,2.714e-10
7.500e-03,4.177e-09
1.250e-02,1.641e-08
1.750e-02,4.207e-08
2.250e-02,8.702e-08
2.750e-02,1.580e-07
3.250e-02,2.625e-07
3.750e-02,4.092e-07
4.250e-02,6.077e-07
4.750e-02,8.688e-07
5.250e-02,1.204e-06
5.750e-02,1.628e-06
6.250e-02,2.153e-06
6.750e-02,2.797e-06
7.250e-02,3.577e-06
7.750e-02,4.511e-06
8.250e-02,5.622e-06
8.750e-02,6.931e-06
9.250e-02,8.464e-06
9.750e-02,1.025e-05
1.025e-01,1.231e-05
1.075e-01,1.468e-05
1.125e-01,1.740e-05
1.175e-01,2.050e-05
1.225e-01,2.402e-05
1.275e-01,2.800e-05
1.325e-01,3.249e-05
1.375e-01,3.754e-05
1.425e-01,4.319e-05
1.475e-01,4.951e-05
1.525e-01,5.656e-05
1.575e-01,6.440e-05
1.625e-01,7.309e-05
1.675e-01,8.272e-05
1.725e-01,9.335e-05
1.775e-01,1.051e-04
1.825e-01,1.180e-04
1.875e-01,1.322e-04
1.925e-01,1.477e-04
1.975e-01,1.648e-04
2.025e-01,1.834e-04
2.075e-01,2.038e-04
2.125e-01,2.260e-04
2.175e-01,2.502e-04
2.225e-01,2.766e-04
2.275e-01,3.052e-04
2.325e-01,3.362e-04
2.375e-01,3.699e-04
2.425e-01,4.065e-04
2.475e-01,4.460e-04
2.525e-01,4.887e-04
2.575e-01,5.349e-04
2.625e-01,5.847e-04
2.675e-01,6.385e-04
2.725e-01,6.964e-04
2.775e-01,7.588e-04
2.825e-01,8.259e-04
2.875e-01,8.981e-04
2.925e-01,9.757e-04
2.975e-01,1.059e-03
3.025e-01,1.148e-03
3.075e-01,1.244e-03
3.125e-01,1.347e-03
3.175e-01,1.457e-03
3.225e-01,1.575e-03
3.275e-01,1.701e-03
3.325e-01,1.836e-03
3.375e-01,1.981e-03
3.425e-01,2.135e-03
3.475e-01,2.300e-03
3.525e-01,2.476e-03
3.575e-01,2.664e-03
3.625e-01,2.864e-03
3.675e-01,3.078e-03
3.725e-01,3.306e-03
3.775e-01,3.549e-03
3.825e-01,3.807e-03
3.875e-01,4.083e-03
3.925e-01,4.376e-03
3.975e-01,4.688e-03
4.025e-01,5.020e-03
4.075e-01,5.374e-03
4.125e-01,5.749e-03
4.175e-01,6.149e-03
4.225e-01,6.573e-03
4.275e-01,7.024e-03
4.325e-01,7.504e-03
4.375e-01,8.013e-03
4.425e-01,8.553e-03
4.475e-01,9.127e-03
4.525e-01,9.736e-03
4.575e-01,1.038e-02
4.625e-01,1.107e-02
4.675e-01,1.180e-02
4.725e-01,1.257e-02
4.775e-01,1.339e-02
4.825e-01,1.426e-02
4.875e-01,1.518e-02
4.925e-01,1.615e-02
4.975e-01,1.719e-02
5.025e-01,1.829e-02
5.075e-01,1.945e-02
5.125e-01,2.068e-02
5.175e-01,2.199e-02
5.225e-01,2.337e-02
5.275e-01,2.484e-02
5.325e-01,2.639e-02
5.375e-01,2.804e-02
5.425e-01,2.978e-02
5.475e-01,3.163e-02
5.525e-01,3.359e-02
5.575e-01,3.566e-02
5.625e-01,3.786e-02
5.675e-01,4.018e-02
5.725e-01,4.265e-02
5.775e-01,4.526e-02
5.825e-01,4.803e-02
5.875e-01,5.096e-02
5.925e-01,5.407e-02
5.975e-01,5.737e-02
6.025e-01,6.086e-02
6.075e-01,6.455e-02
6.125e-01,6.847e-02
6.175e-01,7.263e-02
6.225e-01,7.704e-02
6.275e-01,8.171e-02
6.325e-01,8.666e-02
6.375e-01,9.191e-02
6.425e-01,9.749e-02
6.475e-01,1.034e-01
6.525e-01,1.097e-01
6.575e-01,1.163e-01
6.625e-01,1.234e-01
6.675e-01,1.309e-01
6.725e-01,1.389e-01
6.775e-01,1.473e-01
6.825e-01,1.563e-01
6.875e-01,1.659e-01
6.925e-01,1.760e-01
6.975e-01,1.868e-01
7.025e-01,1.983e-01
7.075e-01,2.105e-01
7.125e-01,2.236e-01
7.175e-01,2.374e-01
7.225e-01,2.522e-01
7.275e-01,2.679e-01
7.325e-01,2.847e-01
7.375e-01,3.025e-01
7.425e-01,3.216e-01
7.475e-01,3.420e-01
7.525e-01,3.638e-01
7.575e-01,3.870e-01
7.625e-01,4.119e-01
7.675e-01,4.385e-01
7.725e-01,4.670e-01
7.775e-01,4.975e-01
7.825e-01,5.303e-01
7.875e-01,5.654e-01
7.925e-01,6.031e-01
7.975e-01,6.437e-01
8.025e-01,6.873e-01
8.075e-01,7.343e-01
8.125e-01,7.849e-01
8.175e-01,8.396e-01
8.225e-01,8.986e-01
8.275e-01,9.625e-01
8.325e-01,1.032e+00
8.375e-01,1.107e+00
8.425e-01,1.188e+00
8.475e-01,1.277e+00
8.525e-01,1.373e+00
8.575e-01,1.479e+00
8.625e-01,1.594e+00
8.675e-01,1.721e+00
8.725e-01,1.860e+00
8.775e-01,2.013e+00
8.825e-01,2.183e+00
8.875e-01,2.371e+00
8.925e-01,2.580e+00
8.975e-01,2.814e+00
9.025e-01,3.076e+00
9.075e-01,3.371e+00
9.125e-01,3.706e+00
9.175e-01,4.089e+00
9.225e-01,4.529e+00
9.275e-01,5.040e+00
9.325e-01,5.640e+00
9.375e-01,6.353e+00
9.425e-01,7.215e+00
9.475e-01,8.279e+00
9.525e-01,9.631e+00
9.575e-01,1.142e+01
9.625e-01,1.393e+01
9.675e-01,1.787e+01
9.725e-01,2.562e+01
9.775e-01,1.067e+02
9.825e-01,0.000e+00
9.875e-01,0.000e+00
9.925e-01,0.000e+00
9.975e-01,0.000e+00
