transmittance,probability_density
2.032e-03,2.228e-14
6.095e-03,3.854e-08
1.016e-02,7.560e-06
1.422e-02,1.506e-04
1.829e-02,1.094e-03
2.235e-02,4.567e-03
2.641e-02,1.352e-02
3.048e-02,3.175e-02
3.454e-02,6.327e-02
3.860e-02,1.117e-01
4.267e-02,1.796e-01
4.673e-02,2.685e-01
5.079e-02,3.788e-01
5.486e-02,5.096e-01
5.892e-02,6.590e-01
6.298e-02,8.248e-01
6.705e-02,1.004e+00
7.111e-02,1.194e+00
7.517e-02,1.390e+00
7.924e-02,1.591e+00
8.330e-02,1.792e+00
8.736e-02,1.992e+00
9.143e-02,2.187e+00
9.549e-02,2.376e+00
9.955e-02,2.558e+00
1.036e-01,2.729e+00
1.077e-01,2.890e+00
1.117e-01,3.040e+00
1.158e-01,3.177e+00
1.199e-01,3.302e+00
1.239e-01,3.415e+00
1.280e-01,3.514e+00
1.321e-01,3.601e+00
1.361e-01,3.676e+00
1.402e-01,3.739e+00
1.443e-01,3.790e+00
1.483e-01,3.831e+00
1.524e-01,3.861e+00
1.564e-01,3.881e+00
1.605e-01,3.892e+00
1.646e-01,3.894e+00
1.686e-01,3.889e+00
1.727e-01,3.875e+00
1.768e-01,3.855e+00
1.808e-01,3.829e+00
1.849e-01,3.797e+00
1.889e-01,3.760e+00
1.930e-01,3.718e+00
1.971e-01,3.672e+00
2.011e-01,3.622e+00
2.052e-01,3.569e+00
2.093e-01,3.513e+00
2.133e-01,3.455e+00
2.174e-01,3.395e+00
2.215e-01,3.332e+00
2.255e-01,3.269e+00
2.296e-01,3.204e+00
2.336e-01,3.138e+00
2.377e-01,3.072e+00
2.418e-01,3.005e+00
2.458e-01,2.937e+00
2.499e-01,2.870e+00
2.540e-01,2.803e+00
2.580e-01,2.736e+00
2.621e-01,2.669e+00
2.662e-01,2.603e+00
2.702e-01,2.538e+00
2.743e-01,2.473e+00
2.783e-01,2.409e+00
2.824e-01,2.346e+00
2.865e-01,2.283e+00
2.905e-01,2.222e+00
2.946e-01,2.162e+00
2.987e-01,2.103e+00
3.027e-01,2.045e+00
3.068e-01,1.988e+00
3.109e-01,1.932e+00
3.149e-01,1.877e+00
3.190e-01,1.824e+00
3.230e-01,1.772e+00
3.271e-01,1.721e+00
3.312e-01,1.671e+00
3.352e-01,1.622e+00
3.393e-01,1.575e+00
3.434e-01,1.529e+00
3.474e-01,1.484e+00
3.515e-01,1.440e+00
3.555e-01,1.397e+00
3.596e-01,1.355e+00
3.637e-01,1.315e+00
3.677e-01,1.275e+00
3.718e-01,1.237e+00
3.759e-01,1.200e+00
3.799e-01,1.164e+00
3.840e-01,1.128e+00
3.881e-01,1.094e+00
3.921e-01,1.061e+00
3.962e-01,1.029e+00
4.002e-01,9.975e-01
4.043e-01,9.671e-01
4.084e-01,9.376e-01
4.124e-01,9.090e-01
4.165e-01,8.812e-01
4.206e-01,8.543e-01
4.246e-01,8.281e-01
4.287e-01,8.028e-01
4.328e-01,7.782e-01
4.368e-01,7.544e-01
4.409e-01,7.313e-01
4.449e-01,7.089e-01
4.490e-01,6.872e-01
4.531e-01,6.661e-01
4.571e-01,6.457e-01
4.612e-01,6.260e-01
4.653e-01,6.068e-01
4.693e-01,5.882e-01
4.734e-01,5.702e-01
4.774e-01,5.528e-01
4.815e-01,5.359e-01
4.856e-01,5.196e-01
4.896e-01,5.037e-01
4.937e-01,4.884e-01
4.978e-01,4.735e-01
5.018e-01,4.591e-01
5.059e-01,4.451e-01
5.100e-01,4.316e-01
5.140e-01,4.185e-01
5.181e-01,4.058e-01
5.221e-01,3.935e-01
5.262e-01,3.816e-01
5.303e-01,3.701e-01
5.343e-01,3.589e-01
5.384e-01,3.481e-01
5.425e-01,3.376e-01
5.465e-01,3.274e-01
5.506e-01,3.176e-01
5.547e-01,3.080e-01
5.587e-01,2.988e-01
5.628e-01,2.899e-01
5.668e-01,2.812e-01
5.709e-01,2.728e-01
5.750e-01,2.647e-01
5.790e-01,2.568e-01
5.831e-01,2.492e-01
5.872e-01,2.418e-01
5.912e-01,2.346e-01
5.953e-01,2.277e-01
5.994e-01,2.209e-01
6.034e-01,2.144e-01
6.075e-01,2.081e-01
6.115e-01,2.020e-01
6.156e-01,1.960e-01
6.197e-01,1.903e-01
6.237e-01,1.847e-01
6.278e-01,1.793e-01
6.319e-01,1.741e-01
6.359e-01,1.690e-01
6.400e-01,1.641e-01
6.440e-01,1.593e-01
6.481e-01,1.547e-01
6.522e-01,1.503e-01
6.562e-01,1.459e-01
6.603e-01,1.417e-01
6.644e-01,1.376e-01
6.684e-01,1.337e-01
6.725e-01,1.298e-01
6.766e-01,1.261e-01
6.806e-01,1.225e-01
6.847e-01,1.190e-01
6.887e-01,1.156e-01
6.928e-01,1.123e-01
6.969e-01,1.091e-01
7.009e-01,1.061e-01
7.050e-01,1.031e-01
7.091e-01,1.001e-01
7.131e-01,9.732e-02
7.172e-01,9.459e-02
7.213e-01,9.193e-02
7.253e-01,8.935e-02
7.294e-01,8.685e-02
7.334e-01,8.443e-02
7.375e-01,8.207e-02
7.416e-01,7.979e-02
7.456e-01,7.757e-02
7.497e-01,7.542e-02
7.538e-01,7.334e-02
7.578e-01,7.131e-02
7.619e-01,6.934e-02
7.660e-01,6.744e-02
7.700e-01,6.558e-02
7.741e-01,6.378e-02
7.781e-01,6.204e-02
7.822e-01,6.034e-02
7.863e-01,5.870e-02
7.903e-01,5.710e-02
7.944e-01,5.555e-02
7.985e-01,5.404e-02
8.025e-01,5.258e-02
8.066e-01,5.116e-02
8.106e-01,4.978e-02
