transmittance,probability_density
2.072e-03,6.630e-29
6.217e-03,2.186e-17
1.036e-02,4.943e-13
1.451e-02,1.641e-10
1.865e-02,8.281e-09
2.280e-02,1.471e-07
2.694e-02,1.358e-06
3.109e-02,8.048e-06
3.523e-02,3.473e-05
3.938e-02,1.183e-04
4.352e-02,3.360e-04
4.767e-02,8.264e-04
5.181e-02,1.810e-03
5.595e-02,3.606e-03
6.010e-02,6.637e-03
6.424e-02,1.143e-02
6.839e-02,1.860e-02
7.253e-02,2.883e-02
7.668e-02,4.284e-02
8.082e-02,6.135e-02
8.497e-02,8.507e-02
8.911e-02,1.146e-01
9.326e-02,1.506e-01
9.740e-02,1.934e-01
1.015e-01,2.433e-01
1.057e-01,3.006e-01
1.098e-01,3.652e-01
1.140e-01,4.371e-01
1.181e-01,5.161e-01
1.223e-01,6.017e-01
1.264e-01,6.935e-01
1.306e-01,7.910e-01
1.347e-01,8.935e-01
1.389e-01,1.000e+00
1.430e-01,1.111e+00
1.471e-01,1.224e+00
1.513e-01,1.339e+00
1.554e-01,1.455e+00
1.596e-01,1.572e+00
1.637e-01,1.689e+00
1.679e-01,1.804e+00
1.720e-01,1.918e+00
1.762e-01,2.030e+00
1.803e-01,2.139e+00
1.844e-01,2.244e+00
1.886e-01,2.345e+00
1.927e-01,2.442e+00
1.969e-01,2.534e+00
2.010e-01,2.621e+00
2.052e-01,2.703e+00
2.093e-01,2.780e+00
2.135e-01,2.851e+00
2.176e-01,2.916e+00
2.217e-01,2.975e+00
2.259e-01,3.029e+00
2.300e-01,3.077e+00
2.342e-01,3.119e+00
2.383e-01,3.155e+00
2.425e-01,3.186e+00
2.466e-01,3.211e+00
2.508e-01,3.231e+00
2.549e-01,3.246e+00
2.591e-01,3.256e+00
2.632e-01,3.261e+00
2.673e-01,3.262e+00
2.715e-01,3.258e+00
2.756e-01,3.250e+00
2.798e-01,3.238e+00
2.839e-01,3.223e+00
2.881e-01,3.203e+00
2.922e-01,3.181e+00
2.964e-01,3.156e+00
3.005e-01,3.127e+00
3.046e-01,3.096e+00
3.088e-01,3.063e+00
3.129e-01,3.027e+00
3.171e-01,2.989e+00
3.212e-01,2.950e+00
3.254e-01,2.909e+00
3.295e-01,2.866e+00
3.337e-01,2.822e+00
3.378e-01,2.776e+00
3.419e-01,2.730e+00
3.461e-01,2.683e+00
3.502e-01,2.635e+00
3.544e-01,2.587e+00
3.585e-01,2.537e+00
3.627e-01,2.488e+00
3.668e-01,2.438e+00
3.710e-01,2.389e+00
3.751e-01,2.339e+00
3.792e-01,2.289e+00
3.834e-01,2.239e+00
3.875e-01,2.189e+00
3.917e-01,2.140e+00
3.958e-01,2.091e+00
4.000e-01,2.042e+00
4.041e-01,1.994e+00
4.083e-01,1.946e+00
4.124e-01,1.899e+00
4.166e-01,1.852e+00
4.207e-01,1.806e+00
4.248e-01,1.760e+00
4.290e-01,1.716e+00
4.331e-01,1.671e+00
4.373e-01,1.628e+00
4.414e-01,1.585e+00
4.456e-01,1.543e+00
4.497e-01,1.502e+00
4.539e-01,1.462e+00
4.580e-01,1.422e+00
4.621e-01,1.383e+00
4.663e-01,1.345e+00
4.704e-01,1.308e+00
4.746e-01,1.271e+00
4.787e-01,1.235e+00
4.829e-01,1.201e+00
4.870e-01,1.166e+00
4.912e-01,1.133e+00
4.953e-01,1.101e+00
4.994e-01,1.069e+00
5.036e-01,1.038e+00
5.077e-01,1.008e+00
5.119e-01,9.781e-01
5.160e-01,9.494e-01
5.202e-01,9.214e-01
5.243e-01,8.941e-01
5.285e-01,8.675e-01
5.326e-01,8.416e-01
5.368e-01,8.164e-01
5.409e-01,7.919e-01
5.450e-01,7.681e-01
5.492e-01,7.449e-01
5.533e-01,7.223e-01
5.575e-01,7.004e-01
5.616e-01,6.790e-01
5.658e-01,6.583e-01
5.699e-01,6.382e-01
5.741e-01,6.186e-01
5.782e-01,5.996e-01
5.823e-01,5.811e-01
5.865e-01,5.632e-01
5.906e-01,5.458e-01
5.948e-01,5.289e-01
5.989e-01,5.125e-01
6.031e-01,4.966e-01
6.072e-01,4.811e-01
6.114e-01,4.661e-01
6.155e-01,4.516e-01
6.196e-01,4.375e-01
6.238e-01,4.238e-01
6.279e-01,4.105e-01
6.321e-01,3.977e-01
6.362e-01,3.852e-01
6.404e-01,3.731e-01
6.445e-01,3.614e-01
6.487e-01,3.500e-01
6.528e-01,3.390e-01
6.570e-01,3.283e-01
6.611e-01,3.180e-01
6.652e-01,3.079e-01
6.694e-01,2.982e-01
6.735e-01,2.888e-01
6.777e-01,2.797e-01
6.818e-01,2.708e-01
6.860e-01,2.623e-01
6.901e-01,2.540e-01
6.943e-01,2.460e-01
6.984e-01,2.382e-01
7.025e-01,2.306e-01
7.067e-01,2.233e-01
7.108e-01,2.163e-01
7.150e-01,2.094e-01
7.191e-01,2.028e-01
7.233e-01,1.964e-01
7.274e-01,1.901e-01
7.316e-01,1.841e-01
7.357e-01,1.783e-01
7.398e-01,1.727e-01
7.440e-01,1.672e-01
7.481e-01,1.619e-01
7.523e-01,1.568e-01
7.564e-01,1.518e-01
7.606e-01,1.470e-01
7.647e-01,1.424e-01
7.689e-01,1.379e-01
7.730e-01,1.335e-01
7.772e-01,1.293e-01
7.813e-01,1.252e-01
7.854e-01,1.213e-01
7.896e-01,1.174e-01
7.937e-01,1.137e-01
7.979e-01,1.101e-01
8.020e-01,1.067e-01
8.062e-01,1.033e-01
8.103e-01,1.001e-01
8.145e-01,9.691e-02
8.186e-01,9.387e-02
8.227e-01,9.092e-02
8.269e-01,8.806e-02
