transmittance,probability_density
2.500e-03,7.357e-07
7.500e-03,1.985e-05
1.250e-02,9.235e-05
1.750e-02,2.547e-04
2.250e-02,5.442e-04
2.750e-02,9.984e-04
3.250e-02,1.656e-03
3.750e-02,2.555e-03
4.250e-02,3.735e-03
4.750e-02,5.236e-03
5.250e-02,7.097e-03
5.750e-02,9.359e-03
6.250e-02,1.206e-02
6.750e-02,1.525e-02
7.250e-02,1.896e-02
7.750e-02,2.324e-02
8.250e-02,2.813e-02
8.750e-02,3.366e-02
9.250e-02,3.990e-02
9.750e-02,4.686e-02
1.025e-01,5.461e-02
1.075e-01,6.319e-02
1.125e-01,7.263e-02
1.175e-01,8.299e-02
1.225e-01,9.430e-02
1.275e-01,1.066e-01
1.325e-01,1.200e-01
1.375e-01,1.344e-01
1.425e-01,1.501e-01
1.475e-01,1.668e-01
1.525e-01,1.849e-01
1.575e-01,2.042e-01
1.625e-01,2.248e-01
1.675e-01,2.468e-01
1.725e-01,2.703e-01
1.775e-01,2.952e-01
1.825e-01,3.216e-01
1.875e-01,3.496e-01
1.925e-01,3.793e-01
1.975e-01,4.106e-01
2.025e-01,4.436e-01
2.075e-01,4.784e-01
2.125e-01,5.150e-01
2.175e-01,5.535e-01
2.225e-01,5.940e-01
2.275e-01,6.364e-01
2.325e-01,6.808e-01
2.375e-01,7.274e-01
2.425e-01,7.760e-01
2.475e-01,8.269e-01
2.525e-01,8.801e-01
2.575e-01,9.355e-01
2.625e-01,9.933e-01
2.675e-01,1.054e+00
2.725e-01,1.116e+00
2.775e-01,1.181e+00
2.825e-01,1.249e+00
2.875e-01,1.320e+00
2.925e-01,1.393e+00
2.975e-01,1.469e+00
3.025e-01,1.548e+00
3.075e-01,1.629e+00
3.125e-01,1.714e+00
3.175e-01,1.802e+00
3.225e-01,1.892e+00
3.275e-01,1.986e+00
3.325e-01,2.083e+00
3.375e-01,2.184e+00
3.425e-01,2.288e+00
3.475e-01,2.395e+00
3.525e-01,2.506e+00
3.575e-01,2.620e+00
3.625e-01,2.738e+00
3.675e-01,2.859e+00
3.725e-01,2.985e+00
3.775e-01,3.114e+00
3.825e-01,3.248e+00
3.875e-01,3.385e+00
3.925e-01,3.526e+00
3.975e-01,3.672e+00
4.025e-01,3.822e+00
4.075e-01,3.977e+00
4.125e-01,4.136e+00
4.175e-01,4.300e+00
4.225e-01,4.468e+00
4.275e-01,4.642e+00
4.325e-01,4.821e+00
4.375e-01,5.004e+00
4.425e-01,5.194e+00
4.475e-01,5.389e+00
4.525e-01,5.589e+00
4.575e-01,5.796e+00
4.625e-01,6.009e+00
4.675e-01,6.229e+00
4.725e-01,6.457e+00
4.775e-01,6.692e+00
4.825e-01,6.936e+00
4.875e-01,7.191e+00
4.925e-01,7.458e+00
4.975e-01,7.743e+00
5.025e-01,8.057e+00
5.075e-01,8.457e+00
5.125e-01,0.000e+00
5.175e-01,0.000e+00
5.225e-01,0.000e+00
5.275e-01,0.000e+00
5.325e-01,0.000e+00
5.375e-01,0.000e+00
5.425e-01,0.000e+00
5.475e-01,0.000e+00
5.525e-01,0.000e+00
5.575e-01,0.000e+00
5.625e-01,0.000e+00
5.675e-01,0.000e+00
5.725e-01,0.000e+00
5.775e-01,0.000e+00
5.825e-01,0.000e+00
5.875e-01,0.000e+00
5.925e-01,0.000e+00
5.975e-01,0.000e+00
6.025e-01,0.000e+00
6.075e-01,0.000e+00
6.125e-01,0.000e+00
6.175e-01,0.000e+00
6.225e-01,0.000e+00
6.275e-01,0.000e+00
6.325e-01,0.000e+00
6.375e-01,0.000e+00
6.425e-01,0.000e+00
6.475e-01,0.000e+00
6.525e-01,0.000e+00
6.575e-01,0.000e+00
6.625e-01,0.000e+00
6.675e-01,0.000e+00
6.725e-01,0.000e+00
6.775e-01,0.000e+00
6.825e-01,0.000e+00
6.875e-01,0.000e+00
6.925e-01,0.000e+00
6.975e-01,0.000e+00
7.025e-01,0.000e+00
7.075e-01,0.000e+00
7.125e-01,0.000e+00
7.175e-01,0.000e+00
7.225e-01,0.000e+00
7.275e-01,0.000e+00
7.325e-01,0.000e+00
7.375e-01,0.000e+00
7.425e-01,0.000e+00
7.475e-01,0.000e+00
7.525e-01,0.000e+00
7.575e-01,0.000e+00
7.625e-01,0.000e+00
7.675e-01,0.000e+00
7.725e-01,0.000e+00
7.775e-01,0.000e+00
7.825e-01,0.000e+00
7.875e-01,0.000e+00
7.925e-01,0.000e+00
7.975e-01,0.000e+00
8.025e-01,0.000e+00
8.075e-01,0.000e+00
8.125e-01,0.000e+00
8.175e-01,0.000e+00
8.225e-01,0.000e+00
8.275e-01,0.000e+00
8.325e-01,0.000e+00
8.375e-01,0.000e+00
8.425e-01,0.000e+00
8.475e-01,0.000e+00
8.525e-01,0.000e+00
8.575e-01,0.000e+00
8.625e-01,0.000e+00
8.675e-01,0.000e+00
8.725e-01,0.000e+00
8.775e-01,0.000e+00
8.825e-01,0.000e+00
8.875e-01,0.000e+00
8.925e-01,0.000e+00
8.975e-01,0.000e+00
9.025e-01,0.000e+00
9.075e-01,0.000e+00
9.125e-01,0.000e+00
9.175e-01,0.000e+00
9.225e-01,0.000e+00
9.275e-01,0.000e+00
9.325e-01,0.000e+00
9.375e-01,0.000e+00
9.425e-01,0.000e+00
9.475e-01,0.000e+00
9.525e-01,0.000e+00
9.575e-01,0.000e+00
9.625e-01,0.000e+00
9.675e-01,0.000e+00
9.725e-01,0.000e+00
9.775e-01,0.000e+00
9.825e-01,0.000e+00
9.875e-01,0.000e+00
9.925e-01,0.000e+00
9.975e-01,0.000e+00
