transmittance,probability_density
2.500e-03,2.060e-05
7.500e-03,3.630e-04
1.250e-02,1.380e-03
1.750e-02,3.328e-03
2.250e-02,6.424e-03
2.750e-02,1.087e-02
3.250e-02,1.683e-02
3.750e-02,2.449e-02
4.250e-02,3.400e-02
4.750e-02,4.551e-02
5.250e-02,5.918e-02
5.750e-02,7.513e-02
6.250e-02,9.351e-02
6.750e-02,1.145e-01
7.250e-02,1.381e-01
7.750e-02,1.645e-01
8.250e-02,1.939e-01
8.750e-02,2.263e-01
9.250e-02,2.619e-01
9.750e-02,3.008e-01
1.025e-01,3.431e-01
1.075e-01,3.888e-01
1.125e-01,4.382e-01
1.175e-01,4.914e-01
1.225e-01,5.484e-01
1.275e-01,6.093e-01
1.325e-01,6.742e-01
1.375e-01,7.433e-01
1.425e-01,8.167e-01
1.475e-01,8.944e-01
1.525e-01,9.765e-01
1.575e-01,1.063e+00
1.625e-01,1.155e+00
1.675e-01,1.251e+00
1.725e-01,1.352e+00
1.775e-01,1.458e+00
1.825e-01,1.568e+00
1.875e-01,1.685e+00
1.925e-01,1.806e+00
1.975e-01,1.932e+00
2.025e-01,2.064e+00
2.075e-01,2.202e+00
2.125e-01,2.345e+00
2.175e-01,2.494e+00
2.225e-01,2.649e+00
2.275e-01,2.809e+00
2.325e-01,2.976e+00
2.375e-01,3.148e+00
2.425e-01,3.327e+00
2.475e-01,3.512e+00
2.525e-01,3.703e+00
2.575e-01,3.901e+00
2.625e-01,4.106e+00
2.675e-01,4.317e+00
2.725e-01,4.535e+00
2.775e-01,4.759e+00
2.825e-01,4.991e+00
2.875e-01,5.230e+00
2.925e-01,5.476e+00
2.975e-01,5.729e+00
3.025e-01,5.990e+00
3.075e-01,6.258e+00
3.125e-01,6.534e+00
3.175e-01,6.818e+00
3.225e-01,7.110e+00
3.275e-01,7.411e+00
3.325e-01,7.720e+00
3.375e-01,8.038e+00
3.425e-01,8.365e+00
3.475e-01,8.703e+00
3.525e-01,9.052e+00
3.575e-01,9.416e+00
3.625e-01,9.805e+00
3.675e-01,0.000e+00
3.725e-01,0.000e+00
3.775e-01,0.000e+00
3.825e-01,0.000e+00
3.875e-01,0.000e+00
3.925e-01,0.000e+00
3.975e-01,0.000e+00
4.025e-01,0.000e+00
4.075e-01,0.000e+00
4.125e-01,0.000e+00
4.175e-01,0.000e+00
4.225e-01,0.000e+00
4.275e-01,0.000e+00
4.325e-01,0.000e+00
4.375e-01,0.000e+00
4.425e-01,0.000e+00
4.475e-01,0.000e+00
4.525e-01,0.000e+00
4.575e-01,0.000e+00
4.625e-01,0.000e+00
4.675e-01,0.000e+00
4.725e-01,0.000e+00
4.775e-01,0.000e+00
4.825e-01,0.000e+00
4.875e-01,0.000e+00
4.925e-01,0.000e+00
4.975e-01,0.000e+00
5.025e-01,0.000e+00
5.075e-01,0.000e+00
5.125e-01,0.000e+00
5.175e-01,0.000e+00
5.225e-01,0.000e+00
5.275e-01,0.000e+00
5.325e-01,0.000e+00
5.375e-01,0.000e+00
5.425e-01,0.000e+00
5.475e-01,0.000e+00
5.525e-01,0.000e+00
5.575e-01,0.000e+00
5.625e-01,0.000e+00
5.675e-01,0.000e+00
5.725e-01,0.000e+00
5.775e-01,0.000e+00
5.825e-01,0.000e+00
5.875e-01,0.000e+00
5.925e-01,0.000e+00
5.975e-01,0.000e+00
6.025e-01,0.000e+00
6.075e-01,0.000e+00
6.125e-01,0.000e+00
6.175e-01,0.000e+00
6.225e-01,0.000e+00
6.275e-01,0.000e+00
6.325e-01,0.000e+00
6.375e-01,0.000e+00
6.425e-01,0.000e+00
6.475e-01,0.000e+00
6.525e-01,0.000e+00
6.575e-01,0.000e+00
6.625e-01,0.000e+00
6.675e-01,0.000e+00
6.725e-01,0.000e+00
6.775e-01,0.000e+00
6.825e-01,0.000e+00
6.875e-01,0.000e+00
6.925e-01,0.000e+00
6.975e-01,0.000e+00
7.025e-01,0.000e+00
7.075e-01,0.000e+00
7.125e-01,0.000e+00
7.175e-01,0.000e+00
7.225e-01,0.000e+00
7.275e-01,0.000e+00
7.325e-01,0.000e+00
7.375e-01,0.000e+00
7.425e-01,0.000e+00
7.475e-01,0.000e+00
7.525e-01,0.000e+00
7.575e-01,0.000e+00
7.625e-01,0.000e+00
7.675e-01,0.000e+00
7.725e-01,0.000e+00
7.775e-01,0.000e+00
7.825e-01,0.000e+00
7.875e-01,0.000e+00
7.925e-01,0.000e+00
7.975e-01,0.000e+00
8.025e-01,0.000e+00
8.075e-01,0.000e+00
8.125e-01,0.000e+00
8.175e-01,0.000e+00
8.225e-01,0.000e+00
8.275e-01,0.000e+00
8.325e-01,0.000e+00
8.375e-01,0.000e+00
8.425e-01,0.000e+00
8.475e-01,0.000e+00
8.525e-01,0.000e+00
8.575e-01,0.000e+00
8.625e-01,0.000e+00
8.675e-01,0.000e+00
8.725e-01,0.000e+00
8.775e-01,0.000e+00
8.825e-01,0.000e+00
8.875e-01,0.000e+00
8.925e-01,0.000e+00
8.975e-01,0.000e+00
9.025e-01,0.000e+00
9.075e-01,0.000e+00
9.125e-01,0.000e+00
9.175e-01,0.000e+00
9.225e-01,0.000e+00
9.275e-01,0.000e+00
9.325e-01,0.000e+00
9.375e-01,0.000e+00
9.425e-01,0.000e+00
9.475e-01,0.000e+00
9.525e-01,0.000e+00
9.575e-01,0.000e+00
9.625e-01,0.000e+00
9.675e-01,0.000e+00
9.725e-01,0.000e+00
9.775e-01,0.000e+00
9.825e-01,0.000e+00
9.875e-01,0.000e+00
9.925e-01,0.000e+00
9.975e-01,0.000e+00
