transmittance,probability_density
2.500e-03,1.459e-06
7.500e-03,3.602e-05
1.250e-02,1.607e-04
1.750e-02,4.308e-04
2.250e-02,9.009e-04
2.750e-02,1.625e-03
3.250e-02,2.656e-03
3.750e-02,4.047e-03
4.250e-02,5.852e-03
4.750e-02,8.124e-03
5.250e-02,1.091e-02
5.750e-02,1.428e-02
6.250e-02,1.827e-02
6.750e-02,2.293e-02
7.250e-02,2.833e-02
7.750e-02,3.451e-02
8.250e-02,4.153e-02
8.750e-02,4.944e-02
9.250e-02,5.830e-02
9.750e-02,6.815e-02
1.025e-01,7.905e-02
1.075e-01,9.106e-02
1.125e-01,1.042e-01
1.175e-01,1.186e-01
1.225e-01,1.342e-01
1.275e-01,1.512e-01
1.325e-01,1.696e-01
1.375e-01,1.893e-01
1.425e-01,2.106e-01
1.475e-01,2.334e-01
1.525e-01,2.578e-01
1.575e-01,2.838e-01
1.625e-01,3.116e-01
1.675e-01,3.411e-01
1.725e-01,3.724e-01
1.775e-01,4.056e-01
1.825e-01,4.407e-01
1.875e-01,4.779e-01
1.925e-01,5.170e-01
1.975e-01,5.583e-01
2.025e-01,6.017e-01
2.075e-01,6.474e-01
2.125e-01,6.953e-01
2.175e-01,7.456e-01
2.225e-01,7.982e-01
2.275e-01,8.533e-01
2.325e-01,9.109e-01
2.375e-01,9.711e-01
2.425e-01,1.034e+00
2.475e-01,1.099e+00
2.525e-01,1.168e+00
2.575e-01,1.239e+00
2.625e-01,1.313e+00
2.675e-01,1.390e+00
2.725e-01,1.470e+00
2.775e-01,1.553e+00
2.825e-01,1.639e+00
2.875e-01,1.728e+00
2.925e-01,1.821e+00
2.975e-01,1.917e+00
3.025e-01,2.016e+00
3.075e-01,2.119e+00
3.125e-01,2.225e+00
3.175e-01,2.335e+00
3.225e-01,2.449e+00
3.275e-01,2.566e+00
3.325e-01,2.688e+00
3.375e-01,2.813e+00
3.425e-01,2.942e+00
3.475e-01,3.075e+00
3.525e-01,3.212e+00
3.575e-01,3.354e+00
3.625e-01,3.500e+00
3.675e-01,3.650e+00
3.725e-01,3.805e+00
3.775e-01,3.964e+00
3.825e-01,4.128e+00
3.875e-01,4.297e+00
3.925e-01,4.471e+00
3.975e-01,4.650e+00
4.025e-01,4.834e+00
4.075e-01,5.023e+00
4.125e-01,5.218e+00
4.175e-01,5.418e+00
4.225e-01,5.624e+00
4.275e-01,5.836e+00
4.325e-01,6.055e+00
4.375e-01,6.280e+00
4.425e-01,6.512e+00
4.475e-01,6.752e+00
4.525e-01,6.999e+00
4.575e-01,7.256e+00
4.625e-01,7.524e+00
4.675e-01,7.806e+00
4.725e-01,8.108e+00
4.775e-01,8.453e+00
4.825e-01,0.000e+00
4.875e-01,0.000e+00
4.925e-01,0.000e+00
4.975e-01,0.000e+00
5.025e-01,0.000e+00
5.075e-01,0.000e+00
5.125e-01,0.000e+00
5.175e-01,0.000e+00
5.225e-01,0.000e+00
5.275e-01,0.000e+00
5.325e-01,0.000e+00
5.375e-01,0.000e+00
5.425e-01,0.000e+00
5.475e-01,0.000e+00
5.525e-01,0.000e+00
5.575e-01,0.000e+00
5.625e-01,0.000e+00
5.675e-01,0.000e+00
5.725e-01,0.000e+00
5.775e-01,0.000e+00
5.825e-01,0.000e+00
5.875e-01,0.000e+00
5.925e-01,0.000e+00
5.975e-01,0.000e+00
6.025e-01,0.000e+00
6.075e-01,0.000e+00
6.125e-01,0.000e+00
6.175e-01,0.000e+00
6.225e-01,0.000e+00
6.275e-01,0.000e+00
6.325e-01,0.000e+00
6.375e-01,0.000e+00
6.425e-01,0.000e+00
6.475e-01,0.000e+00
6.525e-01,0.000e+00
6.575e-01,0.000e+00
6.625e-01,0.000e+00
6.675e-01,0.000e+00
6.725e-01,0.000e+00
6.775e-01,0.000e+00
6.825e-01,0.000e+00
6.875e-01,0.000e+00
6.925e-01,0.000e+00
6.975e-01,0.000e+00
7.025e-01,0.000e+00
7.075e-01,0.000e+00
7.125e-01,0.000e+00
7.175e-01,0.000e+00
7.225e-01,0.000e+00
7.275e-01,0.000e+00
7.325e-01,0.000e+00
7.375e-01,0.000e+00
7.425e-01,0.000e+00
7.475e-01,0.000e+00
7.525e-01,0.000e+00
7.575e-01,0.000e+00
7.625e-01,0.000e+00
7.675e-01,0.000e+00
7.725e-01,0.000e+00
7.775e-01,0.000e+00
7.825e-01,0.000e+00
7.875e-01,0.000e+00
7.925e-01,0.000e+00
7.975e-01,0.000e+00
8.025e-01,0.000e+00
8.075e-01,0.000e+00
8.125e-01,0.000e+00
8.175e-01,0.000e+00
8.225e-01,0.000e+00
8.275e-01,0.000e+00
8.325e-01,0.000e+00
8.375e-01,0.000e+00
8.425e-01,0.000e+00
8.475e-01,0.000e+00
8.525e-01,0.000e+00
8.575e-01,0.000e+00
8.625e-01,0.000e+00
8.675e-01,0.000e+00
8.725e-01,0.000e+00
8.775e-01,0.000e+00
8.825e-01,0.000e+00
8.875e-01,0.000e+00
8.925e-01,0.000e+00
8.975e-01,0.000e+00
9.025e-01,0.000e+00
9.075e-01,0.000e+00
9.125e-01,0.000e+00
9.175e-01,0.000e+00
9.225e-01,0.000e+00
9.275e-01,0.000e+00
9.325e-01,0.000e+00
9.375e-01,0.000e+00
9.425e-01,0.000e+00
9.475e-01,0.000e+00
9.525e-01,0.000e+00
9.575e-01,0.000e+00
9.625e-01,0.000e+00
9.675e-01,0.000e+00
9.725e-01,0.000e+00
9.775e-01,0.000e+00
9.825e-01,0.000e+00
9.875e-01,0.000e+00
9.925e-01,0.000e+00
9.975e-01,0.000e+00
