transmittance,probability_density
2.500e-03,2.717e-09
7.500e-03,1.426e-07
1.250e-02,9.194e-07
1.750e-02,3.165e-06
2.250e-02,8.009e-06
2.750e-02,1.687e-05
3.250e-02,3.143e-05
3.750e-02,5.366e-05
4.250e-02,8.581e-05
4.750e-02,1.304e-04
5.250e-02,1.902e-04
5.750e-02,2.683e-04
6.250e-02,3.680e-04
6.750e-02,4.930e-04
7.250e-02,6.473e-04
7.750e-02,8.349e-04
8.250e-02,1.060e-03
8.750e-02,1.329e-03
9.250e-02,1.645e-03
9.750e-02,2.014e-03
1.025e-01,2.442e-03
1.075e-01,2.935e-03
1.125e-01,3.499e-03
1.175e-01,4.141e-03
1.225e-01,4.868e-03
1.275e-01,5.687e-03
1.325e-01,6.606e-03
1.375e-01,7.633e-03
1.425e-01,8.776e-03
1.475e-01,1.004e-02
1.525e-01,1.145e-02
1.575e-01,1.299e-02
1.625e-01,1.469e-02
1.675e-01,1.655e-02
1.725e-01,1.859e-02
1.775e-01,2.081e-02
1.825e-01,2.322e-02
1.875e-01,2.585e-02
1.925e-01,2.869e-02
1.975e-01,3.177e-02
2.025e-01,3.509e-02
2.075e-01,3.867e-02
2.125e-01,4.253e-02
2.175e-01,4.667e-02
2.225e-01,5.111e-02
2.275e-01,5.587e-02
2.325e-01,6.097e-02
2.375e-01,6.641e-02
2.425e-01,7.222e-02
2.475e-01,7.841e-02
2.525e-01,8.501e-02
2.575e-01,9.202e-02
2.625e-01,9.947e-02
2.675e-01,1.074e-01
2.725e-01,1.158e-01
2.775e-01,1.247e-01
2.825e-01,1.341e-01
2.875e-01,1.440e-01
2.925e-01,1.545e-01
2.975e-01,1.656e-01
3.025e-01,1.773e-01
3.075e-01,1.896e-01
3.125e-01,2.026e-01
3.175e-01,2.163e-01
3.225e-01,2.307e-01
3.275e-01,2.458e-01
3.325e-01,2.617e-01
3.375e-01,2.784e-01
3.425e-01,2.959e-01
3.475e-01,3.143e-01
3.525e-01,3.336e-01
3.575e-01,3.537e-01
3.625e-01,3.749e-01
3.675e-01,3.970e-01
3.725e-01,4.201e-01
3.775e-01,4.443e-01
3.825e-01,4.695e-01
3.875e-01,4.959e-01
3.925e-01,5.235e-01
3.975e-01,5.523e-01
4.025e-01,5.823e-01
4.075e-01,6.136e-01
4.125e-01,6.462e-01
4.175e-01,6.803e-01
4.225e-01,7.157e-01
4.275e-01,7.526e-01
4.325e-01,7.910e-01
4.375e-01,8.310e-01
4.425e-01,8.727e-01
4.475e-01,9.159e-01
4.525e-01,9.610e-01
4.575e-01,1.008e+00
4.625e-01,1.056e+00
4.675e-01,1.107e+00
4.725e-01,1.160e+00
4.775e-01,1.214e+00
4.825e-01,1.271e+00
4.875e-01,1.330e+00
4.925e-01,1.391e+00
4.975e-01,1.454e+00
5.025e-01,1.520e+00
5.075e-01,1.588e+00
5.125e-01,1.659e+00
5.175e-01,1.732e+00
5.225e-01,1.808e+00
5.275e-01,1.887e+00
5.325e-01,1.969e+00
5.375e-01,2.054e+00
5.425e-01,2.142e+00
5.475e-01,2.233e+00
5.525e-01,2.328e+00
5.575e-01,2.426e+00
5.625e-01,2.528e+00
5.675e-01,2.633e+00
5.725e-01,2.743e+00
5.775e-01,2.856e+00
5.825e-01,2.974e+00
5.875e-01,3.096e+00
5.925e-01,3.222e+00
5.975e-01,3.354e+00
6.025e-01,3.490e+00
6.075e-01,3.632e+00
6.125e-01,3.779e+00
6.175e-01,3.932e+00
6.225e-01,4.091e+00
6.275e-01,4.257e+00
6.325e-01,4.429e+00
6.375e-01,4.609e+00
6.425e-01,4.797e+00
6.475e-01,4.993e+00
6.525e-01,5.198e+00
6.575e-01,5.413e+00
6.625e-01,5.640e+00
6.675e-01,5.879e+00
6.725e-01,6.133e+00
6.775e-01,6.403e+00
6.825e-01,6.693e+00
6.875e-01,7.009e+00
6.925e-01,7.358e+00
6.975e-01,7.758e+00
7.025e-01,8.247e+00
7.075e-01,8.965e+00
7.125e-01,0.000e+00
7.175e-01,0.000e+00
7.225e-01,0.000e+00
7.275e-01,0.000e+00
7.325e-01,0.000e+00
7.375e-01,0.000e+00
7.425e-01,0.000e+00
7.475e-01,0.000e+00
7.525e-01,0.000e+00
7.575e-01,0.000e+00
7.625e-01,0.000e+00
7.675e-01,0.000e+00
7.725e-01,0.000e+00
7.775e-01,0.000e+00
7.825e-01,0.000e+00
7.875e-01,0.000e+00
7.925e-01,0.000e+00
7.975e-01,0.000e+00
8.025e-01,0.000e+00
8.075e-01,0.000e+00
8.125e-01,0.000e+00
8.175e-01,0.000e+00
8.225e-01,0.000e+00
8.275e-01,0.000e+00
8.325e-01,0.000e+00
8.375e-01,0.000e+00
8.425e-01,0.000e+00
8.475e-01,0.000e+00
8.525e-01,0.000e+00
8.575e-01,0.000e+00
8.625e-01,0.000e+00
8.675e-01,0.000e+00
8.725e-01,0.000e+00
8.775e-01,0.000e+00
8.825e-01,0.000e+00
8.875e-01,0.000e+00
8.925e-01,0.000e+00
8.975e-01,0.000e+00
9.025e-01,0.000e+00
9.075e-01,0.000e+00
9.125e-01,0.000e+00
9.175e-01,0.000e+00
9.225e-01,0.000e+00
9.275e-01,0.000e+00
9.325e-01,0.000e+00
9.375e-01,0.000e+00
9.425e-01,0.000e+00
9.475e-01,0.000e+00
9.525e-01,0.000e+00
9.575e-01,0.000e+00
9.625e-01,0.000e+00
9.675e-01,0.000e+00
9.725e-01,0.000e+00
9.775e-01,0.000e+00
9.825e-01,0.000e+00
9.875e-01,0.000e+00
9.925e-01,0.000e+00
9.975e-01,0.000e+00
