transmittance,probability_density
2.500e-03,5.447e-09
7.500e-03,2.659e-07
1.250e-02,1.652e-06
1.750e-02,5.544e-06
2.250e-02,1.376e-05
2.750e-02,2.850e-05
3.250e-02,5.238e-05
3.750e-02,8.835e-05
4.250e-02,1.398e-04
4.750e-02,2.103e-04
5.250e-02,3.041e-04
5.750e-02,4.254e-04
6.250e-02,5.791e-04
6.750e-02,7.703e-04
7.250e-02,1.004e-03
7.750e-02,1.287e-03
8.250e-02,1.625e-03
8.750e-02,2.025e-03
9.250e-02,2.493e-03
9.750e-02,3.036e-03
1.025e-01,3.663e-03
1.075e-01,4.382e-03
1.125e-01,5.200e-03
1.175e-01,6.127e-03
1.225e-01,7.171e-03
1.275e-01,8.343e-03
1.325e-01,9.652e-03
1.375e-01,1.111e-02
1.425e-01,1.272e-02
1.475e-01,1.451e-02
1.525e-01,1.647e-02
1.575e-01,1.863e-02
1.625e-01,2.099e-02
1.675e-01,2.357e-02
1.725e-01,2.638e-02
1.775e-01,2.944e-02
1.825e-01,3.276e-02
1.875e-01,3.635e-02
1.925e-01,4.022e-02
1.975e-01,4.441e-02
2.025e-01,4.891e-02
2.075e-01,5.375e-02
2.125e-01,5.894e-02
2.175e-01,6.450e-02
2.225e-01,7.045e-02
2.275e-01,7.681e-02
2.325e-01,8.359e-02
2.375e-01,9.082e-02
2.425e-01,9.852e-02
2.475e-01,1.067e-01
2.525e-01,1.154e-01
2.575e-01,1.246e-01
2.625e-01,1.344e-01
2.675e-01,1.447e-01
2.725e-01,1.556e-01
2.775e-01,1.672e-01
2.825e-01,1.794e-01
2.875e-01,1.923e-01
2.925e-01,2.059e-01
2.975e-01,2.202e-01
3.025e-01,2.352e-01
3.075e-01,2.510e-01
3.125e-01,2.677e-01
3.175e-01,2.851e-01
3.225e-01,3.035e-01
3.275e-01,3.227e-01
3.325e-01,3.429e-01
3.375e-01,3.640e-01
3.425e-01,3.861e-01
3.475e-01,4.093e-01
3.525e-01,4.335e-01
3.575e-01,4.588e-01
3.625e-01,4.853e-01
3.675e-01,5.129e-01
3.725e-01,5.418e-01
3.775e-01,5.719e-01
3.825e-01,6.033e-01
3.875e-01,6.360e-01
3.925e-01,6.702e-01
3.975e-01,7.057e-01
4.025e-01,7.427e-01
4.075e-01,7.813e-01
4.125e-01,8.214e-01
4.175e-01,8.631e-01
4.225e-01,9.065e-01
4.275e-01,9.516e-01
4.325e-01,9.984e-01
4.375e-01,1.047e+00
4.425e-01,1.098e+00
4.475e-01,1.150e+00
4.525e-01,1.205e+00
4.575e-01,1.261e+00
4.625e-01,1.320e+00
4.675e-01,1.381e+00
4.725e-01,1.444e+00
4.775e-01,1.510e+00
4.825e-01,1.578e+00
4.875e-01,1.648e+00
4.925e-01,1.721e+00
4.975e-01,1.797e+00
5.025e-01,1.875e+00
5.075e-01,1.956e+00
5.125e-01,2.040e+00
5.175e-01,2.127e+00
5.225e-01,2.217e+00
5.275e-01,2.311e+00
5.325e-01,2.407e+00
5.375e-01,2.508e+00
5.425e-01,2.611e+00
5.475e-01,2.719e+00
5.525e-01,2.830e+00
5.575e-01,2.945e+00
5.625e-01,3.064e+00
5.675e-01,3.188e+00
5.725e-01,3.316e+00
5.775e-01,3.448e+00
5.825e-01,3.586e+00
5.875e-01,3.728e+00
5.925e-01,3.876e+00
5.975e-01,4.029e+00
6.025e-01,4.189e+00
6.075e-01,4.354e+00
6.125e-01,4.526e+00
6.175e-01,4.705e+00
6.225e-01,4.891e+00
6.275e-01,5.086e+00
6.325e-01,5.289e+00
6.375e-01,5.501e+00
6.425e-01,5.724e+00
6.475e-01,5.959e+00
6.525e-01,6.208e+00
6.575e-01,6.472e+00
6.625e-01,6.756e+00
6.675e-01,7.065e+00
6.725e-01,7.407e+00
6.775e-01,7.803e+00
6.825e-01,8.305e+00
6.875e-01,9.238e+00
6.925e-01,0.000e+00
6.975e-01,0.000e+00
7.025e-01,0.000e+00
7.075e-01,0.000e+00
7.125e-01,0.000e+00
7.175e-01,0.000e+00
7.225e-01,0.000e+00
7.275e-01,0.000e+00
7.325e-01,0.000e+00
7.375e-01,0.000e+00
7.425e-01,0.000e+00
7.475e-01,0.000e+00
7.525e-01,0.000e+00
7.575e-01,0.000e+00
7.625e-01,0.000e+00
7.675e-01,0.000e+00
7.725e-01,0.000e+00
7.775e-01,0.000e+00
7.825e-01,0.000e+00
7.875e-01,0.000e+00
7.925e-01,0.000e+00
7.975e-01,0.000e+00
8.025e-01,0.000e+00
8.075e-01,0.000e+00
8.125e-01,0.000e+00
8.175e-01,0.000e+00
8.225e-01,0.000e+00
8.275e-01,0.000e+00
8.325e-01,0.000e+00
8.375e-01,0.000e+00
8.425e-01,0.000e+00
8.475e-01,0.000e+00
8.525e-01,0.000e+00
8.575e-01,0.000e+00
8.625e-01,0.000e+00
8.675e-01,0.000e+00
8.725e-01,0.000e+00
8.775e-01,0.000e+00
8.825e-01,0.000e+00
8.875e-01,0.000e+00
8.925e-01,0.000e+00
8.975e-01,0.000e+00
9.025e-01,0.000e+00
9.075e-01,0.000e+00
9.125e-01,0.000e+00
9.175e-01,0.000e+00
9.225e-01,0.000e+00
9.275e-01,0.000e+00
9.325e-01,0.000e+00
9.375e-01,0.000e+00
9.425e-01,0.000e+00
9.475e-01,0.000e+00
9.525e-01,0.000e+00
9.575e-01,0.000e+00
9.625e-01,0.000e+00
9.675e-01,0.000e+00
9.725e-01,0.000e+00
9.775e-01,0.000e+00
9.825e-01,0.000e+00
9.875e-01,0.000e+00
9.925e-01,0.000e+00
9.975e-01,0.000e+00
