transmittance,probability_density
2.500e-03,9.468e-11
7.500e-03,6.631e-09
1.250e-02,4.981e-08
1.750e-02,1.911e-07
2.250e-02,5.268e-07
2.750e-02,1.191e-06
3.250e-02,2.360e-06
3.750e-02,4.254e-06
4.250e-02,7.142e-06
4.750e-02,1.134e-05
5.250e-02,1.724e-05
5.750e-02,2.525e-05
6.250e-02,3.589e-05
6.750e-02,4.971e-05
7.250e-02,6.734e-05
7.750e-02,8.948e-05
8.250e-02,1.169e-04
8.750e-02,1.505e-04
9.250e-02,1.912e-04
9.750e-02,2.400e-04
1.025e-01,2.981e-04
1.075e-01,3.666e-04
1.125e-01,4.469e-04
1.175e-01,5.404e-04
1.225e-01,6.487e-04
1.275e-01,7.734e-04
1.325e-01,9.163e-04
1.375e-01,1.079e-03
1.425e-01,1.264e-03
1.475e-01,1.473e-03
1.525e-01,1.709e-03
1.575e-01,1.974e-03
1.625e-01,2.270e-03
1.675e-01,2.601e-03
1.725e-01,2.968e-03
1.775e-01,3.376e-03
1.825e-01,3.828e-03
1.875e-01,4.326e-03
1.925e-01,4.875e-03
1.975e-01,5.478e-03
2.025e-01,6.140e-03
2.075e-01,6.864e-03
2.125e-01,7.655e-03
2.175e-01,8.517e-03
2.225e-01,9.456e-03
2.275e-01,1.048e-02
2.325e-01,1.158e-02
2.375e-01,1.278e-02
2.425e-01,1.408e-02
2.475e-01,1.549e-02
2.525e-01,1.700e-02
2.575e-01,1.863e-02
2.625e-01,2.039e-02
2.675e-01,2.228e-02
2.725e-01,2.431e-02
2.775e-01,2.648e-02
2.825e-01,2.881e-02
2.875e-01,3.131e-02
2.925e-01,3.398e-02
2.975e-01,3.684e-02
3.025e-01,3.988e-02
3.075e-01,4.313e-02
3.125e-01,4.660e-02
3.175e-01,5.029e-02
3.225e-01,5.421e-02
3.275e-01,5.839e-02
3.325e-01,6.283e-02
3.375e-01,6.754e-02
3.425e-01,7.254e-02
3.475e-01,7.784e-02
3.525e-01,8.345e-02
3.575e-01,8.940e-02
3.625e-01,9.570e-02
3.675e-01,1.024e-01
3.725e-01,1.094e-01
3.775e-01,1.168e-01
3.825e-01,1.247e-01
3.875e-01,1.330e-01
3.925e-01,1.417e-01
3.975e-01,1.510e-01
4.025e-01,1.607e-01
4.075e-01,1.709e-01
4.125e-01,1.817e-01
4.175e-01,1.931e-01
4.225e-01,2.050e-01
4.275e-01,2.176e-01
4.325e-01,2.308e-01
4.375e-01,2.447e-01
4.425e-01,2.593e-01
4.475e-01,2.746e-01
4.525e-01,2.907e-01
4.575e-01,3.076e-01
4.625e-01,3.253e-01
4.675e-01,3.439e-01
4.725e-01,3.634e-01
4.775e-01,3.838e-01
4.825e-01,4.052e-01
4.875e-01,4.277e-01
4.925e-01,4.512e-01
4.975e-01,4.758e-01
5.025e-01,5.015e-01
5.075e-01,5.285e-01
5.125e-01,5.567e-01
5.175e-01,5.862e-01
5.225e-01,6.171e-01
5.275e-01,6.494e-01
5.325e-01,6.832e-01
5.375e-01,7.185e-01
5.425e-01,7.554e-01
5.475e-01,7.940e-01
5.525e-01,8.343e-01
5.575e-01,8.765e-01
5.625e-01,9.205e-01
5.675e-01,9.665e-01
5.725e-01,1.015e+00
5.775e-01,1.065e+00
5.825e-01,1.117e+00
5.875e-01,1.172e+00
5.925e-01,1.229e+00
5.975e-01,1.289e+00
6.025e-01,1.351e+00
6.075e-01,1.417e+00
6.125e-01,1.485e+00
6.175e-01,1.556e+00
6.225e-01,1.630e+00
6.275e-01,1.708e+00
6.325e-01,1.789e+00
6.375e-01,1.874e+00
6.425e-01,1.962e+00
6.475e-01,2.055e+00
6.525e-01,2.152e+00
6.575e-01,2.253e+00
6.625e-01,2.359e+00
6.675e-01,2.469e+00
6.725e-01,2.585e+00
6.775e-01,2.707e+00
6.825e-01,2.834e+00
6.875e-01,2.967e+00
6.925e-01,3.107e+00
6.975e-01,3.253e+00
7.025e-01,3.407e+00
7.075e-01,3.569e+00
7.125e-01,3.739e+00
7.175e-01,3.919e+00
7.225e-01,4.108e+00
7.275e-01,4.307e+00
7.325e-01,4.518e+00
7.375e-01,4.741e+00
7.425e-01,4.978e+00
7.475e-01,5.231e+00
7.525e-01,5.500e+00
7.575e-01,5.789e+00
7.625e-01,6.100e+00
7.675e-01,6.437e+00
7.725e-01,6.805e+00
7.775e-01,7.211e+00
7.825e-01,7.666e+00
7.875e-01,8.187e+00
7.925e-01,8.807e+00
7.975e-01,9.597e+00
8.025e-01,1.079e+01
8.075e-01,0.000e+00
8.125e-01,0.000e+00
8.175e-01,0.000e+00
8.225e-01,0.000e+00
8.275e-01,0.000e+00
8.325e-01,0.000e+00
8.375e-01,0.000e+00
8.425e-01,0.000e+00
8.475e-01,0.000e+00
8.525e-01,0.000e+00
8.575e-01,0.000e+00
8.625e-01,0.000e+00
8.675e-01,0.000e+00
8.725e-01,0.000e+00
8.775e-01,0.000e+00
8.825e-01,0.000e+00
8.875e-01,0.000e+00
8.925e-01,0.000e+00
8.975e-01,0.000e+00
9.025e-01,0.000e+00
9.075e-01,0.000e+00
9.125e-01,0.000e+00
9.175e-01,0.000e+00
9.225e-01,0.000e+00
9.275e-01,0.000e+00
9.325e-01,0.000e+00
9.375e-01,0.000e+00
9.425e-01,0.000e+00
9.475e-01,0.000e+00
9.525e-01,0.000e+00
9.575e-01,0.000e+00
9.625e-01,0.000e+00
9.675e-01,0.000e+00
9.725e-01,0.000e+00
9.775e-01,0.000e+00
9.825e-01,0.000e+00
9.875e-01,0.000e+00
9.925e-01,0.000e+00
9.975e-01,0.000e+00
