transmittance,probability_density
2.500e-03,3.524e-10
7.500e-03,2.235e-08
1.250e-02,1.590e-07
1.750e-02,5.865e-07
2.250e-02,1.567e-06
2.750e-02,3.451e-06
3.250e-02,6.683e-06
3.750e-02,1.180e-05
4.250e-02,1.946e-05
4.750e-02,3.040e-05
5.250e-02,4.548e-05
5.750e-02,6.568e-05
6.250e-02,9.210e-05
6.750e-02,1.259e-04
7.250e-02,1.686e-04
7.750e-02,2.214e-04
8.250e-02,2.862e-04
8.750e-02,3.646e-04
9.250e-02,4.586e-04
9.750e-02,5.701e-04
1.025e-01,7.015e-04
1.075e-01,8.551e-04
1.125e-01,1.033e-03
1.175e-01,1.239e-03
1.225e-01,1.476e-03
1.275e-01,1.745e-03
1.325e-01,2.052e-03
1.375e-01,2.398e-03
1.425e-01,2.789e-03
1.475e-01,3.227e-03
1.525e-01,3.718e-03
1.575e-01,4.264e-03
1.625e-01,4.871e-03
1.675e-01,5.544e-03
1.725e-01,6.288e-03
1.775e-01,7.107e-03
1.825e-01,8.007e-03
1.875e-01,8.995e-03
1.925e-01,1.008e-02
1.975e-01,1.126e-02
2.025e-01,1.254e-02
2.075e-01,1.394e-02
2.125e-01,1.546e-02
2.175e-01,1.711e-02
2.225e-01,1.889e-02
2.275e-01,2.082e-02
2.325e-01,2.290e-02
2.375e-01,2.514e-02
2.425e-01,2.755e-02
2.475e-01,3.014e-02
2.525e-01,3.293e-02
2.575e-01,3.591e-02
2.625e-01,3.910e-02
2.675e-01,4.251e-02
2.725e-01,4.616e-02
2.775e-01,5.006e-02
2.825e-01,5.421e-02
2.875e-01,5.864e-02
2.925e-01,6.334e-02
2.975e-01,6.835e-02
3.025e-01,7.367e-02
3.075e-01,7.932e-02
3.125e-01,8.531e-02
3.175e-01,9.166e-02
3.225e-01,9.839e-02
3.275e-01,1.055e-01
3.325e-01,1.130e-01
3.375e-01,1.210e-01
3.425e-01,1.294e-01
3.475e-01,1.383e-01
3.525e-01,1.477e-01
3.575e-01,1.575e-01
3.625e-01,1.679e-01
3.675e-01,1.789e-01
3.725e-01,1.904e-01
3.775e-01,2.026e-01
3.825e-01,2.153e-01
3.875e-01,2.287e-01
3.925e-01,2.428e-01
3.975e-01,2.576e-01
4.025e-01,2.732e-01
4.075e-01,2.895e-01
4.125e-01,3.066e-01
4.175e-01,3.245e-01
4.225e-01,3.433e-01
4.275e-01,3.629e-01
4.325e-01,3.835e-01
4.375e-01,4.051e-01
4.425e-01,4.276e-01
4.475e-01,4.512e-01
4.525e-01,4.759e-01
4.575e-01,5.017e-01
4.625e-01,5.287e-01
4.675e-01,5.569e-01
4.725e-01,5.863e-01
4.775e-01,6.170e-01
4.825e-01,6.491e-01
4.875e-01,6.826e-01
4.925e-01,7.176e-01
4.975e-01,7.540e-01
5.025e-01,7.920e-01
5.075e-01,8.317e-01
5.125e-01,8.731e-01
5.175e-01,9.162e-01
5.225e-01,9.611e-01
5.275e-01,1.008e+00
5.325e-01,1.057e+00
5.375e-01,1.108e+00
5.425e-01,1.160e+00
5.475e-01,1.216e+00
5.525e-01,1.273e+00
5.575e-01,1.333e+00
5.625e-01,1.395e+00
5.675e-01,1.460e+00
5.725e-01,1.528e+00
5.775e-01,1.598e+00
5.825e-01,1.671e+00
5.875e-01,1.747e+00
5.925e-01,1.827e+00
5.975e-01,1.909e+00
6.025e-01,1.995e+00
6.075e-01,2.085e+00
6.125e-01,2.178e+00
6.175e-01,2.275e+00
6.225e-01,2.377e+00
6.275e-01,2.482e+00
6.325e-01,2.592e+00
6.375e-01,2.707e+00
6.425e-01,2.826e+00
6.475e-01,2.951e+00
6.525e-01,3.081e+00
6.575e-01,3.216e+00
6.625e-01,3.358e+00
6.675e-01,3.506e+00
6.725e-01,3.661e+00
6.775e-01,3.823e+00
6.825e-01,3.993e+00
6.875e-01,4.171e+00
6.925e-01,4.357e+00
6.975e-01,4.554e+00
7.025e-01,4.760e+00
7.075e-01,4.978e+00
7.125e-01,5.208e+00
7.175e-01,5.452e+00
7.225e-01,5.711e+00
7.275e-01,5.988e+00
7.325e-01,6.285e+00
7.375e-01,6.607e+00
7.425e-01,6.958e+00
7.475e-01,7.346e+00
7.525e-01,7.785e+00
7.575e-01,8.300e+00
7.625e-01,8.945e+00
7.675e-01,9.907e+00
7.725e-01,0.000e+00
7.775e-01,0.000e+00
7.825e-01,0.000e+00
7.875e-01,0.000e+00
7.925e-01,0.000e+00
7.975e-01,0.000e+00
8.025e-01,0.000e+00
8.075e-01,0.000e+00
8.125e-01,0.000e+00
8.175e-01,0.000e+00
8.225e-01,0.000e+00
8.275e-01,0.000e+00
8.325e-01,0.000e+00
8.375e-01,0.000e+00
8.425e-01,0.000e+00
8.475e-01,0.000e+00
8.525e-01,0.000e+00
8.575e-01,0.000e+00
8.625e-01,0.000e+00
8.675e-01,0.000e+00
8.725e-01,0.000e+00
8.775e-01,0.000e+00
8.825e-01,0.000e+00
8.875e-01,0.000e+00
8.925e-01,0.000e+00
8.975e-01,0.000e+00
9.025e-01,0.000e+00
9.075e-01,0.000e+00
9.125e-01,0.000e+00
9.175e-01,0.000e+00
9.225e-01,0.000e+00
9.275e-01,0.000e+00
9.325e-01,0.000e+00
9.375e-01,0.000e+00
9.425e-01,0.000e+00
9.475e-01,0.000e+00
9.525e-01,0.000e+00
9.575e-01,0.000e+00
9.625e-01,0.000e+00
9.675e-01,0.000e+00
9.725e-01,0.000e+00
9.775e-01,0.000e+00
9.825e-01,0.000e+00
9.875e-01,0.000e+00
9.925e-01,0.000e+00
9.975e-01,0.000e+00
