transmittance,probability_density
2.500e-03,6.902e-10
7.500e-03,4.131e-08
1.250e-02,2.850e-07
1.750e-02,1.029e-06
2.250e-02,2.701e-06
2.750e-02,5.866e-06
3.250e-02,1.122e-05
3.750e-02,1.961e-05
4.250e-02,3.201e-05
4.750e-02,4.955e-05
5.250e-02,7.354e-05
5.750e-02,1.054e-04
6.250e-02,1.467e-04
6.750e-02,1.993e-04
7.250e-02,2.651e-04
7.750e-02,3.462e-04
8.250e-02,4.449e-04
8.750e-02,5.637e-04
9.250e-02,7.053e-04
9.750e-02,8.725e-04
1.025e-01,1.068e-03
1.075e-01,1.296e-03
1.125e-01,1.560e-03
1.175e-01,1.862e-03
1.225e-01,2.208e-03
1.275e-01,2.601e-03
1.325e-01,3.046e-03
1.375e-01,3.547e-03
1.425e-01,4.109e-03
1.475e-01,4.738e-03
1.525e-01,5.438e-03
1.575e-01,6.216e-03
1.625e-01,7.077e-03
1.675e-01,8.027e-03
1.725e-01,9.074e-03
1.775e-01,1.022e-02
1.825e-01,1.148e-02
1.875e-01,1.286e-02
1.925e-01,1.436e-02
1.975e-01,1.600e-02
2.025e-01,1.777e-02
2.075e-01,1.970e-02
2.125e-01,2.179e-02
2.175e-01,2.404e-02
2.225e-01,2.647e-02
2.275e-01,2.910e-02
2.325e-01,3.192e-02
2.375e-01,3.495e-02
2.425e-01,3.820e-02
2.475e-01,4.169e-02
2.525e-01,4.542e-02
2.575e-01,4.941e-02
2.625e-01,5.367e-02
2.675e-01,5.822e-02
2.725e-01,6.306e-02
2.775e-01,6.822e-02
2.825e-01,7.371e-02
2.875e-01,7.954e-02
2.925e-01,8.573e-02
2.975e-01,9.230e-02
3.025e-01,9.926e-02
3.075e-01,1.066e-01
3.125e-01,1.144e-01
3.175e-01,1.227e-01
3.225e-01,1.314e-01
3.275e-01,1.406e-01
3.325e-01,1.503e-01
3.375e-01,1.606e-01
3.425e-01,1.714e-01
3.475e-01,1.828e-01
3.525e-01,1.947e-01
3.575e-01,2.073e-01
3.625e-01,2.206e-01
3.675e-01,2.345e-01
3.725e-01,2.491e-01
3.775e-01,2.645e-01
3.825e-01,2.806e-01
3.875e-01,2.975e-01
3.925e-01,3.152e-01
3.975e-01,3.338e-01
4.025e-01,3.533e-01
4.075e-01,3.736e-01
4.125e-01,3.950e-01
4.175e-01,4.173e-01
4.225e-01,4.406e-01
4.275e-01,4.650e-01
4.325e-01,4.905e-01
4.375e-01,5.171e-01
4.425e-01,5.449e-01
4.475e-01,5.739e-01
4.525e-01,6.043e-01
4.575e-01,6.359e-01
4.625e-01,6.689e-01
4.675e-01,7.033e-01
4.725e-01,7.391e-01
4.775e-01,7.765e-01
4.825e-01,8.155e-01
4.875e-01,8.561e-01
4.925e-01,8.984e-01
4.975e-01,9.424e-01
5.025e-01,9.883e-01
5.075e-01,1.036e+00
5.125e-01,1.086e+00
5.175e-01,1.137e+00
5.225e-01,1.191e+00
5.275e-01,1.247e+00
5.325e-01,1.305e+00
5.375e-01,1.366e+00
5.425e-01,1.429e+00
5.475e-01,1.494e+00
5.525e-01,1.562e+00
5.575e-01,1.633e+00
5.625e-01,1.707e+00
5.675e-01,1.783e+00
5.725e-01,1.863e+00
5.775e-01,1.946e+00
5.825e-01,2.031e+00
5.875e-01,2.121e+00
5.925e-01,2.214e+00
5.975e-01,2.310e+00
6.025e-01,2.411e+00
6.075e-01,2.515e+00
6.125e-01,2.624e+00
6.175e-01,2.737e+00
6.225e-01,2.855e+00
6.275e-01,2.977e+00
6.325e-01,3.105e+00
6.375e-01,3.238e+00
6.425e-01,3.376e+00
6.475e-01,3.521e+00
6.525e-01,3.671e+00
6.575e-01,3.828e+00
6.625e-01,3.992e+00
6.675e-01,4.164e+00
6.725e-01,4.344e+00
6.775e-01,4.532e+00
6.825e-01,4.729e+00
6.875e-01,4.936e+00
6.925e-01,5.155e+00
6.975e-01,5.385e+00
7.025e-01,5.629e+00
7.075e-01,5.889e+00
7.125e-01,6.165e+00
7.175e-01,6.463e+00
7.225e-01,6.785e+00
7.275e-01,7.138e+00
7.325e-01,7.533e+00
7.375e-01,7.989e+00
7.425e-01,8.544e+00
7.475e-01,9.326e+00
7.525e-01,1.263e+01
7.575e-01,0.000e+00
7.625e-01,0.000e+00
7.675e-01,0.000e+00
7.725e-01,0.000e+00
7.775e-01,0.000e+00
7.825e-01,0.000e+00
7.875e-01,0.000e+00
7.925e-01,0.000e+00
7.975e-01,0.000e+00
8.025e-01,0.000e+00
8.075e-01,0.000e+00
8.125e-01,0.000e+00
8.175e-01,0.000e+00
8.225e-01,0.000e+00
8.275e-01,0.000e+00
8.325e-01,0.000e+00
8.375e-01,0.000e+00
8.425e-01,0.000e+00
8.475e-01,0.000e+00
8.525e-01,0.000e+00
8.575e-01,0.000e+00
8.625e-01,0.000e+00
8.675e-01,0.000e+00
8.725e-01,0.000e+00
8.775e-01,0.000e+00
8.825e-01,0.000e+00
8.875e-01,0.000e+00
8.925e-01,0.000e+00
8.975e-01,0.000e+00
9.025e-01,0.000e+00
9.075e-01,0.000e+00
9.125e-01,0.000e+00
9.175e-01,0.000e+00
9.225e-01,0.000e+00
9.275e-01,0.000e+00
9.325e-01,0.000e+00
9.375e-01,0.000e+00
9.425e-01,0.000e+00
9.475e-01,0.000e+00
9.525e-01,0.000e+00
9.575e-01,0.000e+00
9.625e-01,0.000e+00
9.675e-01,0.000e+00
9.725e-01,0.000e+00
9.775e-01,0.000e+00
9.825e-01,0.000e+00
9.875e-01,0.000e+00
9.925e-01,0.000e+00
9.975e-01,0.000e+00
