transmittance,probability_density
2.500e-03,1.364e-09
7.500e-03,7.666e-08
1.250e-02,5.117e-07
1.750e-02,1.805e-06
2.250e-02,4.655e-06
2.750e-02,9.956e-06
3.250e-02,1.880e-05
3.750e-02,3.248e-05
4.250e-02,5.249e-05
4.750e-02,8.052e-05
5.250e-02,1.185e-04
5.750e-02,1.685e-04
6.250e-02,2.329e-04
6.750e-02,3.142e-04
7.250e-02,4.152e-04
7.750e-02,5.389e-04
8.250e-02,6.885e-04
8.750e-02,8.675e-04
9.250e-02,1.080e-03
9.750e-02,1.329e-03
1.025e-01,1.619e-03
1.075e-01,1.955e-03
1.125e-01,2.342e-03
1.175e-01,2.784e-03
1.225e-01,3.287e-03
1.275e-01,3.856e-03
1.325e-01,4.498e-03
1.375e-01,5.217e-03
1.425e-01,6.021e-03
1.475e-01,6.917e-03
1.525e-01,7.911e-03
1.575e-01,9.010e-03
1.625e-01,1.022e-02
1.675e-01,1.156e-02
1.725e-01,1.302e-02
1.775e-01,1.462e-02
1.825e-01,1.637e-02
1.875e-01,1.828e-02
1.925e-01,2.035e-02
1.975e-01,2.260e-02
2.025e-01,2.504e-02
2.075e-01,2.768e-02
2.125e-01,3.052e-02
2.175e-01,3.359e-02
2.225e-01,3.689e-02
2.275e-01,4.043e-02
2.325e-01,4.423e-02
2.375e-01,4.831e-02
2.425e-01,5.267e-02
2.475e-01,5.733e-02
2.525e-01,6.231e-02
2.575e-01,6.761e-02
2.625e-01,7.326e-02
2.675e-01,7.928e-02
2.725e-01,8.567e-02
2.775e-01,9.246e-02
2.825e-01,9.967e-02
2.875e-01,1.073e-01
2.925e-01,1.154e-01
2.975e-01,1.240e-01
3.025e-01,1.330e-01
3.075e-01,1.426e-01
3.125e-01,1.527e-01
3.175e-01,1.633e-01
3.225e-01,1.746e-01
3.275e-01,1.864e-01
3.325e-01,1.989e-01
3.375e-01,2.120e-01
3.425e-01,2.258e-01
3.475e-01,2.403e-01
3.525e-01,2.555e-01
3.575e-01,2.715e-01
3.625e-01,2.883e-01
3.675e-01,3.059e-01
3.725e-01,3.243e-01
3.775e-01,3.436e-01
3.825e-01,3.639e-01
3.875e-01,3.850e-01
3.925e-01,4.072e-01
3.975e-01,4.304e-01
4.025e-01,4.546e-01
4.075e-01,4.799e-01
4.125e-01,5.064e-01
4.175e-01,5.340e-01
4.225e-01,5.628e-01
4.275e-01,5.929e-01
4.325e-01,6.242e-01
4.375e-01,6.570e-01
4.425e-01,6.911e-01
4.475e-01,7.266e-01
4.525e-01,7.636e-01
4.575e-01,8.022e-01
4.625e-01,8.423e-01
4.675e-01,8.841e-01
4.725e-01,9.277e-01
4.775e-01,9.729e-01
4.825e-01,1.020e+00
4.875e-01,1.069e+00
4.925e-01,1.120e+00
4.975e-01,1.173e+00
5.025e-01,1.228e+00
5.075e-01,1.285e+00
5.125e-01,1.344e+00
5.175e-01,1.406e+00
5.225e-01,1.470e+00
5.275e-01,1.537e+00
5.325e-01,1.606e+00
5.375e-01,1.678e+00
5.425e-01,1.752e+00
5.475e-01,1.830e+00
5.525e-01,1.910e+00
5.575e-01,1.994e+00
5.625e-01,2.080e+00
5.675e-01,2.170e+00
5.725e-01,2.264e+00
5.775e-01,2.361e+00
5.825e-01,2.461e+00
5.875e-01,2.566e+00
5.925e-01,2.674e+00
5.975e-01,2.787e+00
6.025e-01,2.904e+00
6.075e-01,3.026e+00
6.125e-01,3.152e+00
6.175e-01,3.284e+00
6.225e-01,3.420e+00
6.275e-01,3.563e+00
6.325e-01,3.711e+00
6.375e-01,3.865e+00
6.425e-01,4.026e+00
6.475e-01,4.193e+00
6.525e-01,4.368e+00
6.575e-01,4.551e+00
6.625e-01,4.742e+00
6.675e-01,4.942e+00
6.725e-01,5.153e+00
6.775e-01,5.374e+00
6.825e-01,5.607e+00
6.875e-01,5.854e+00
6.925e-01,6.117e+00
6.975e-01,6.398e+00
7.025e-01,6.701e+00
7.075e-01,7.031e+00
7.125e-01,7.397e+00
7.175e-01,7.817e+00
7.225e-01,8.324e+00
7.275e-01,9.032e+00
7.325e-01,0.000e+00
7.375e-01,0.000e+00
7.425e-01,0.000e+00
7.475e-01,0.000e+00
7.525e-01,0.000e+00
7.575e-01,0.000e+00
7.625e-01,0.000e+00
7.675e-01,0.000e+00
7.725e-01,0.000e+00
7.775e-01,0.000e+00
7.825e-01,0.000e+00
7.875e-01,0.000e+00
7.925e-01,0.000e+00
7.975e-01,0.000e+00
8.025e-01,0.000e+00
8.075e-01,0.000e+00
8.125e-01,0.000e+00
8.175e-01,0.000e+00
8.225e-01,0.000e+00
8.275e-01,0.000e+00
8.325e-01,0.000e+00
8.375e-01,0.000e+00
8.425e-01,0.000e+00
8.475e-01,0.000e+00
8.525e-01,0.000e+00
8.575e-01,0.000e+00
8.625e-01,0.000e+00
8.675e-01,0.000e+00
8.725e-01,0.000e+00
8.775e-01,0.000e+00
8.825e-01,0.000e+00
8.875e-01,0.000e+00
8.925e-01,0.000e+00
8.975e-01,0.000e+00
9.025e-01,0.000e+00
9.075e-01,0.000e+00
9.125e-01,0.000e+00
9.175e-01,0.000e+00
9.225e-01,0.000e+00
9.275e-01,0.000e+00
9.325e-01,0.000e+00
9.375e-01,0.000e+00
9.425e-01,0.000e+00
9.475e-01,0.000e+00
9.525e-01,0.000e+00
9.575e-01,0.000e+00
9.625e-01,0.000e+00
9.675e-01,0.000e+00
9.725e-01,0.000e+00
9.775e-01,0.000e+00
9.825e-01,0.000e+00
9.875e-01,0.000e+00
9.925e-01,0.000e+00
9.975e-01,0.000e+00
