transmittance,probability_density
2.500e-03,1.817e-10
7.500e-03,1.214e-08
1.250e-02,8.887e-08
1.750e-02,3.346e-07
2.250e-02,9.084e-07
2.750e-02,2.028e-06
3.250e-02,3.974e-06
3.750e-02,7.093e-06
4.250e-02,1.180e-05
4.750e-02,1.860e-05
5.250e-02,2.804e-05
5.750e-02,4.079e-05
6.250e-02,5.759e-05
6.750e-02,7.927e-05
7.250e-02,1.067e-04
7.750e-02,1.411e-04
8.250e-02,1.833e-04
8.750e-02,2.348e-04
9.250e-02,2.968e-04
9.750e-02,3.708e-04
1.025e-01,4.583e-04
1.075e-01,5.612e-04
1.125e-01,6.813e-04
1.175e-01,8.205e-04
1.225e-01,9.809e-04
1.275e-01,1.165e-03
1.325e-01,1.375e-03
1.375e-01,1.613e-03
1.425e-01,1.883e-03
1.475e-01,2.187e-03
1.525e-01,2.528e-03
1.575e-01,2.909e-03
1.625e-01,3.335e-03
1.675e-01,3.808e-03
1.725e-01,4.332e-03
1.775e-01,4.912e-03
1.825e-01,5.552e-03
1.875e-01,6.256e-03
1.925e-01,7.029e-03
1.975e-01,7.875e-03
2.025e-01,8.801e-03
2.075e-01,9.811e-03
2.125e-01,1.091e-02
2.175e-01,1.211e-02
2.225e-01,1.341e-02
2.275e-01,1.481e-02
2.325e-01,1.634e-02
2.375e-01,1.798e-02
2.425e-01,1.976e-02
2.475e-01,2.167e-02
2.525e-01,2.373e-02
2.575e-01,2.594e-02
2.625e-01,2.832e-02
2.675e-01,3.087e-02
2.725e-01,3.360e-02
2.775e-01,3.652e-02
2.825e-01,3.964e-02
2.875e-01,4.298e-02
2.925e-01,4.653e-02
2.975e-01,5.033e-02
3.025e-01,5.437e-02
3.075e-01,5.867e-02
3.125e-01,6.324e-02
3.175e-01,6.809e-02
3.225e-01,7.325e-02
3.275e-01,7.872e-02
3.325e-01,8.452e-02
3.375e-01,9.066e-02
3.425e-01,9.717e-02
3.475e-01,1.040e-01
3.525e-01,1.113e-01
3.575e-01,1.190e-01
3.625e-01,1.271e-01
3.675e-01,1.357e-01
3.725e-01,1.447e-01
3.775e-01,1.543e-01
3.825e-01,1.643e-01
3.875e-01,1.749e-01
3.925e-01,1.860e-01
3.975e-01,1.978e-01
4.025e-01,2.101e-01
4.075e-01,2.231e-01
4.125e-01,2.367e-01
4.175e-01,2.510e-01
4.225e-01,2.660e-01
4.275e-01,2.818e-01
4.325e-01,2.983e-01
4.375e-01,3.157e-01
4.425e-01,3.339e-01
4.475e-01,3.530e-01
4.525e-01,3.730e-01
4.575e-01,3.939e-01
4.625e-01,4.158e-01
4.675e-01,4.388e-01
4.725e-01,4.628e-01
4.775e-01,4.879e-01
4.825e-01,5.142e-01
4.875e-01,5.417e-01
4.925e-01,5.704e-01
4.975e-01,6.005e-01
5.025e-01,6.318e-01
5.075e-01,6.646e-01
5.125e-01,6.989e-01
5.175e-01,7.347e-01
5.225e-01,7.720e-01
5.275e-01,8.110e-01
5.325e-01,8.517e-01
5.375e-01,8.942e-01
5.425e-01,9.385e-01
5.475e-01,9.847e-01
5.525e-01,1.033e+00
5.575e-01,1.083e+00
5.625e-01,1.136e+00
5.675e-01,1.191e+00
5.725e-01,1.248e+00
5.775e-01,1.307e+00
5.825e-01,1.369e+00
5.875e-01,1.434e+00
5.925e-01,1.502e+00
5.975e-01,1.572e+00
6.025e-01,1.645e+00
6.075e-01,1.722e+00
6.125e-01,1.802e+00
6.175e-01,1.885e+00
6.225e-01,1.972e+00
6.275e-01,2.063e+00
6.325e-01,2.157e+00
6.375e-01,2.256e+00
6.425e-01,2.359e+00
6.475e-01,2.466e+00
6.525e-01,2.579e+00
6.575e-01,2.696e+00
6.625e-01,2.819e+00
6.675e-01,2.947e+00
6.725e-01,3.081e+00
6.775e-01,3.221e+00
6.825e-01,3.368e+00
6.875e-01,3.521e+00
6.925e-01,3.683e+00
6.975e-01,3.852e+00
7.025e-01,4.030e+00
7.075e-01,4.217e+00
7.125e-01,4.413e+00
7.175e-01,4.621e+00
7.225e-01,4.840e+00
7.275e-01,5.073e+00
7.325e-01,5.319e+00
7.375e-01,5.582e+00
7.425e-01,5.863e+00
7.475e-01,6.165e+00
7.525e-01,6.491e+00
7.575e-01,6.847e+00
7.625e-01,7.240e+00
7.675e-01,7.681e+00
7.725e-01,8.188e+00
7.775e-01,8.801e+00
7.825e-01,9.613e+00
7.875e-01,1.105e+01
7.925e-01,0.000e+00
7.975e-01,0.000e+00
8.025e-01,0.000e+00
8.075e-01,0.000e+00
8.125e-01,0.000e+00
8.175e-01,0.000e+00
8.225e-01,0.000e+00
8.275e-01,0.000e+00
8.325e-01,0.000e+00
8.375e-01,0.000e+00
8.425e-01,0.000e+00
8.475e-01,0.000e+00
8.525e-01,0.000e+00
8.575e-01,0.000e+00
8.625e-01,0.000e+00
8.675e-01,0.000e+00
8.725e-01,0.000e+00
8.775e-01,0.000e+00
8.825e-01,0.000e+00
8.875e-01,0.000e+00
8.925e-01,0.000e+00
8.975e-01,0.000e+00
9.025e-01,0.000e+00
9.075e-01,0.000e+00
9.125e-01,0.000e+00
9.175e-01,0.000e+00
9.225e-01,0.000e+00
9.275e-01,0.000e+00
9.325e-01,0.000e+00
9.375e-01,0.000e+00
9.425e-01,0.000e+00
9.475e-01,0.000e+00
9.525e-01,0.000e+00
9.575e-01,0.000e+00
9.625e-01,0.000e+00
9.675e-01,0.000e+00
9.725e-01,0.000e+00
9.775e-01,0.000e+00
9.825e-01,0.000e+00
9.875e-01,0.000e+00
9.925e-01,0.000e+00
9.975e-01,0.000e+00
