transmittance,probability_density
2.500e-03,4.204e-13
7.500e-03,3.592e-11
1.250e-02,3.094e-10
1.750e-02,1.323e-09
2.250e-02,3.997e-09
2.750e-02,9.794e-09
3.250e-02,2.086e-08
3.750e-02,4.015e-08
4.250e-02,7.161e-08
4.750e-02,1.204e-07
5.250e-02,1.929e-07
5.750e-02,2.971e-07
6.250e-02,4.428e-07
6.750e-02,6.417e-07
7.250e-02,9.079e-07
7.750e-02,1.258e-06
8.250e-02,1.711e-06
8.750e-02,2.290e-06
9.250e-02,3.020e-06
9.750e-02,3.931e-06
1.025e-01,5.058e-06
1.075e-01,6.439e-06
1.125e-01,8.117e-06
1.175e-01,1.014e-05
1.225e-01,1.257e-05
1.275e-01,1.546e-05
1.325e-01,1.888e-05
1.375e-01,2.291e-05
1.425e-01,2.763e-05
1.475e-01,3.314e-05
1.525e-01,3.955e-05
1.575e-01,4.695e-05
1.625e-01,5.549e-05
1.675e-01,6.530e-05
1.725e-01,7.652e-05
1.775e-01,8.933e-05
1.825e-01,1.039e-04
1.875e-01,1.204e-04
1.925e-01,1.391e-04
1.975e-01,1.602e-04
2.025e-01,1.840e-04
2.075e-01,2.107e-04
2.125e-01,2.406e-04
2.175e-01,2.740e-04
2.225e-01,3.114e-04
2.275e-01,3.530e-04
2.325e-01,3.992e-04
2.375e-01,4.506e-04
2.425e-01,5.075e-04
2.475e-01,5.705e-04
2.525e-01,6.400e-04
2.575e-01,7.168e-04
2.625e-01,8.013e-04
2.675e-01,8.943e-04
2.725e-01,9.965e-04
2.775e-01,1.109e-03
2.825e-01,1.231e-03
2.875e-01,1.366e-03
2.925e-01,1.513e-03
2.975e-01,1.674e-03
3.025e-01,1.849e-03
3.075e-01,2.040e-03
3.125e-01,2.248e-03
3.175e-01,2.474e-03
3.225e-01,2.720e-03
3.275e-01,2.987e-03
3.325e-01,3.277e-03
3.375e-01,3.591e-03
3.425e-01,3.931e-03
3.475e-01,4.299e-03
3.525e-01,4.698e-03
3.575e-01,5.128e-03
3.625e-01,5.593e-03
3.675e-01,6.095e-03
3.725e-01,6.636e-03
3.775e-01,7.220e-03
3.825e-01,7.848e-03
3.875e-01,8.525e-03
3.925e-01,9.253e-03
3.975e-01,1.004e-02
4.025e-01,1.088e-02
4.075e-01,1.178e-02
4.125e-01,1.275e-02
4.175e-01,1.379e-02
4.225e-01,1.491e-02
4.275e-01,1.611e-02
4.325e-01,1.739e-02
4.375e-01,1.876e-02
4.425e-01,2.024e-02
4.475e-01,2.181e-02
4.525e-01,2.350e-02
4.575e-01,2.530e-02
4.625e-01,2.722e-02
4.675e-01,2.928e-02
4.725e-01,3.148e-02
4.775e-01,3.383e-02
4.825e-01,3.634e-02
4.875e-01,3.901e-02
4.925e-01,4.187e-02
4.975e-01,4.491e-02
5.025e-01,4.816e-02
5.075e-01,5.162e-02
5.125e-01,5.531e-02
5.175e-01,5.924e-02
5.225e-01,6.343e-02
5.275e-01,6.788e-02
5.325e-01,7.263e-02
5.375e-01,7.769e-02
5.425e-01,8.306e-02
5.475e-01,8.879e-02
5.525e-01,9.488e-02
5.575e-01,1.014e-01
5.625e-01,1.082e-01
5.675e-01,1.156e-01
5.725e-01,1.234e-01
5.775e-01,1.317e-01
5.825e-01,1.405e-01
5.875e-01,1.498e-01
5.925e-01,1.598e-01
5.975e-01,1.703e-01
6.025e-01,1.816e-01
6.075e-01,1.935e-01
6.125e-01,2.062e-01
6.175e-01,2.197e-01
6.225e-01,2.340e-01
6.275e-01,2.493e-01
6.325e-01,2.654e-01
6.375e-01,2.826e-01
6.425e-01,3.009e-01
6.475e-01,3.203e-01
6.525e-01,3.409e-01
6.575e-01,3.628e-01
6.625e-01,3.861e-01
6.675e-01,4.109e-01
6.725e-01,4.372e-01
6.775e-01,4.652e-01
6.825e-01,4.950e-01
6.875e-01,5.266e-01
6.925e-01,5.603e-01
6.975e-01,5.961e-01
7.025e-01,6.342e-01
7.075e-01,6.747e-01
7.125e-01,7.179e-01
7.175e-01,7.639e-01
7.225e-01,8.129e-01
7.275e-01,8.651e-01
7.325e-01,9.208e-01
7.375e-01,9.801e-01
7.425e-01,1.043e+00
7.475e-01,1.111e+00
7.525e-01,1.183e+00
7.575e-01,1.260e+00
7.625e-01,1.343e+00
7.675e-01,1.431e+00
7.725e-01,1.526e+00
7.775e-01,1.627e+00
7.825e-01,1.735e+00
7.875e-01,1.852e+00
7.925e-01,1.977e+00
7.975e-01,2.112e+00
8.025e-01,2.257e+00
8.075e-01,2.413e+00
8.125e-01,2.581e+00
8.175e-01,2.764e+00
8.225e-01,2.961e+00
8.275e-01,3.176e+00
8.325e-01,3.409e+00
8.375e-01,3.663e+00
8.425e-01,3.940e+00
8.475e-01,4.245e+00
8.525e-01,4.580e+00
8.575e-01,4.950e+00
8.625e-01,5.361e+00
8.675e-01,5.819e+00
8.725e-01,6.335e+00
8.775e-01,6.919e+00
8.825e-01,7.589e+00
8.875e-01,8.367e+00
8.925e-01,9.288e+00
8.975e-01,1.041e+01
9.025e-01,1.182e+01
9.075e-01,1.373e+01
9.125e-01,1.667e+01
9.175e-01,2.373e+01
9.225e-01,0.000e+00
9.275e-01,0.000e+00
9.325e-01,0.000e+00
9.375e-01,0.000e+00
9.425e-01,0.000e+00
9.475e-01,0.000e+00
9.525e-01,0.000e+00
9.575e-01,0.000e+00
9.625e-01,0.000e+00
9.675e-01,0.000e+00
9.725e-01,0.000e+00
9.775e-01,0.000e+00
9.825e-01,0.000e+00
9.875e-01,0.000e+00
9.925e-01,0.000e+00
9.975e-01,0.000e+00
