transmittance,probability_density
2.500e-03,7.423e-13
7.500e-03,6.308e-11
1.250e-02,5.391e-10
1.750e-02,2.289e-09
2.250e-02,6.869e-09
2.750e-02,1.673e-08
3.250e-02,3.541e-08
3.750e-02,6.779e-08
4.250e-02,1.203e-07
4.750e-02,2.012e-07
5.250e-02,3.210e-07
5.750e-02,4.922e-07
6.250e-02,7.305e-07
6.750e-02,1.054e-06
7.250e-02,1.486e-06
7.750e-02,2.050e-06
8.250e-02,2.778e-06
8.750e-02,3.705e-06
9.250e-02,4.869e-06
9.750e-02,6.316e-06
1.025e-01,8.099e-06
1.075e-01,1.027e-05
1.125e-01,1.291e-05
1.175e-01,1.608e-05
1.225e-01,1.986e-05
1.275e-01,2.436e-05
1.325e-01,2.966e-05
1.375e-01,3.588e-05
1.425e-01,4.315e-05
1.475e-01,5.161e-05
1.525e-01,6.141e-05
1.575e-01,7.270e-05
1.625e-01,8.569e-05
1.675e-01,1.006e-04
1.725e-01,1.175e-04
1.775e-01,1.368e-04
1.825e-01,1.587e-04
1.875e-01,1.835e-04
1.925e-01,2.115e-04
1.975e-01,2.429e-04
2.025e-01,2.782e-04
2.075e-01,3.178e-04
2.125e-01,3.620e-04
2.175e-01,4.113e-04
2.225e-01,4.662e-04
2.275e-01,5.272e-04
2.325e-01,5.949e-04
2.375e-01,6.698e-04
2.425e-01,7.527e-04
2.475e-01,8.441e-04
2.525e-01,9.448e-04
2.575e-01,1.056e-03
2.625e-01,1.178e-03
2.675e-01,1.311e-03
2.725e-01,1.458e-03
2.775e-01,1.618e-03
2.825e-01,1.793e-03
2.875e-01,1.985e-03
2.925e-01,2.194e-03
2.975e-01,2.421e-03
3.025e-01,2.669e-03
3.075e-01,2.938e-03
3.125e-01,3.231e-03
3.175e-01,3.548e-03
3.225e-01,3.893e-03
3.275e-01,4.266e-03
3.325e-01,4.670e-03
3.375e-01,5.107e-03
3.425e-01,5.579e-03
3.475e-01,6.089e-03
3.525e-01,6.639e-03
3.575e-01,7.232e-03
3.625e-01,7.872e-03
3.675e-01,8.560e-03
3.725e-01,9.301e-03
3.775e-01,1.010e-02
3.825e-01,1.095e-02
3.875e-01,1.188e-02
3.925e-01,1.286e-02
3.975e-01,1.392e-02
4.025e-01,1.506e-02
4.075e-01,1.628e-02
4.125e-01,1.758e-02
4.175e-01,1.898e-02
4.225e-01,2.048e-02
4.275e-01,2.208e-02
4.325e-01,2.379e-02
4.375e-01,2.562e-02
4.425e-01,2.757e-02
4.475e-01,2.966e-02
4.525e-01,3.189e-02
4.575e-01,3.427e-02
4.625e-01,3.680e-02
4.675e-01,3.951e-02
4.725e-01,4.239e-02
4.775e-01,4.546e-02
4.825e-01,4.874e-02
4.875e-01,5.222e-02
4.925e-01,5.593e-02
4.975e-01,5.988e-02
5.025e-01,6.408e-02
5.075e-01,6.856e-02
5.125e-01,7.331e-02
5.175e-01,7.837e-02
5.225e-01,8.374e-02
5.275e-01,8.945e-02
5.325e-01,9.552e-02
5.375e-01,1.020e-01
5.425e-01,1.088e-01
5.475e-01,1.161e-01
5.525e-01,1.238e-01
5.575e-01,1.320e-01
5.625e-01,1.407e-01
5.675e-01,1.499e-01
5.725e-01,1.597e-01
5.775e-01,1.701e-01
5.825e-01,1.811e-01
5.875e-01,1.928e-01
5.925e-01,2.052e-01
5.975e-01,2.184e-01
6.025e-01,2.323e-01
6.075e-01,2.471e-01
6.125e-01,2.628e-01
6.175e-01,2.795e-01
6.225e-01,2.971e-01
6.275e-01,3.158e-01
6.325e-01,3.356e-01
6.375e-01,3.566e-01
6.425e-01,3.789e-01
6.475e-01,4.026e-01
6.525e-01,4.277e-01
6.575e-01,4.542e-01
6.625e-01,4.824e-01
6.675e-01,5.123e-01
6.725e-01,5.441e-01
6.775e-01,5.777e-01
6.825e-01,6.135e-01
6.875e-01,6.514e-01
6.925e-01,6.916e-01
6.975e-01,7.343e-01
7.025e-01,7.797e-01
7.075e-01,8.279e-01
7.125e-01,8.791e-01
7.175e-01,9.335e-01
7.225e-01,9.914e-01
7.275e-01,1.053e+00
7.325e-01,1.118e+00
7.375e-01,1.188e+00
7.425e-01,1.262e+00
7.475e-01,1.341e+00
7.525e-01,1.426e+00
7.575e-01,1.516e+00
7.625e-01,1.611e+00
7.675e-01,1.714e+00
7.725e-01,1.823e+00
7.775e-01,1.941e+00
7.825e-01,2.066e+00
7.875e-01,2.200e+00
7.925e-01,2.345e+00
7.975e-01,2.499e+00
8.025e-01,2.666e+00
8.075e-01,2.845e+00
8.125e-01,3.039e+00
8.175e-01,3.248e+00
8.225e-01,3.474e+00
8.275e-01,3.720e+00
8.325e-01,3.987e+00
8.375e-01,4.278e+00
8.425e-01,4.597e+00
8.475e-01,4.947e+00
8.525e-01,5.334e+00
8.575e-01,5.763e+00
8.625e-01,6.241e+00
8.675e-01,6.780e+00
8.725e-01,7.392e+00
8.775e-01,8.096e+00
8.825e-01,8.920e+00
8.875e-01,9.906e+00
8.925e-01,1.113e+01
8.975e-01,1.274e+01
9.025e-01,1.511e+01
9.075e-01,1.987e+01
9.125e-01,0.000e+00
9.175e-01,0.000e+00
9.225e-01,0.000e+00
9.275e-01,0.000e+00
9.325e-01,0.000e+00
9.375e-01,0.000e+00
9.425e-01,0.000e+00
9.475e-01,0.000e+00
9.525e-01,0.000e+00
9.575e-01,0.000e+00
9.625e-01,0.000e+00
9.675e-01,0.000e+00
9.725e-01,0.000e+00
9.775e-01,0.000e+00
9.825e-01,0.000e+00
9.875e-01,0.000e+00
9.925e-01,0.000e+00
9.975e-01,0.000e+00
