transmittance,probability_density
2.500e-03,1.428e-11
7.500e-03,1.115e-09
1.250e-02,8.929e-09
1.750e-02,3.595e-08
2.250e-02,1.030e-07
2.750e-02,2.409e-07
3.250e-02,4.915e-07
3.750e-02,9.097e-07
4.250e-02,1.565e-06
4.750e-02,2.541e-06
5.250e-02,3.942e-06
5.750e-02,5.888e-06
6.250e-02,8.521e-06
6.750e-02,1.201e-05
7.250e-02,1.654e-05
7.750e-02,2.232e-05
8.250e-02,2.961e-05
8.750e-02,3.867e-05
9.250e-02,4.981e-05
9.750e-02,6.337e-05
1.025e-01,7.973e-05
1.075e-01,9.930e-05
1.125e-01,1.225e-04
1.175e-01,1.500e-04
1.225e-01,1.821e-04
1.275e-01,2.196e-04
1.325e-01,2.630e-04
1.375e-01,3.131e-04
1.425e-01,3.706e-04
1.475e-01,4.364e-04
1.525e-01,5.113e-04
1.575e-01,5.963e-04
1.625e-01,6.925e-04
1.675e-01,8.009e-04
1.725e-01,9.227e-04
1.775e-01,1.059e-03
1.825e-01,1.212e-03
1.875e-01,1.381e-03
1.925e-01,1.570e-03
1.975e-01,1.780e-03
2.025e-01,2.012e-03
2.075e-01,2.268e-03
2.125e-01,2.550e-03
2.175e-01,2.861e-03
2.225e-01,3.202e-03
2.275e-01,3.575e-03
2.325e-01,3.984e-03
2.375e-01,4.431e-03
2.425e-01,4.918e-03
2.475e-01,5.449e-03
2.525e-01,6.027e-03
2.575e-01,6.655e-03
2.625e-01,7.335e-03
2.675e-01,8.073e-03
2.725e-01,8.871e-03
2.775e-01,9.734e-03
2.825e-01,1.067e-02
2.875e-01,1.167e-02
2.925e-01,1.276e-02
2.975e-01,1.392e-02
3.025e-01,1.518e-02
3.075e-01,1.652e-02
3.125e-01,1.797e-02
3.175e-01,1.952e-02
3.225e-01,2.119e-02
3.275e-01,2.297e-02
3.325e-01,2.487e-02
3.375e-01,2.691e-02
3.425e-01,2.909e-02
3.475e-01,3.141e-02
3.525e-01,3.389e-02
3.575e-01,3.654e-02
3.625e-01,3.935e-02
3.675e-01,4.235e-02
3.725e-01,4.555e-02
3.775e-01,4.894e-02
3.825e-01,5.256e-02
3.875e-01,5.639e-02
3.925e-01,6.046e-02
3.975e-01,6.479e-02
4.025e-01,6.937e-02
4.075e-01,7.424e-02
4.125e-01,7.939e-02
4.175e-01,8.485e-02
4.225e-01,9.063e-02
4.275e-01,9.675e-02
4.325e-01,1.032e-01
4.375e-01,1.101e-01
4.425e-01,1.173e-01
4.475e-01,1.249e-01
4.525e-01,1.330e-01
4.575e-01,1.416e-01
4.625e-01,1.506e-01
4.675e-01,1.601e-01
4.725e-01,1.701e-01
4.775e-01,1.806e-01
4.825e-01,1.918e-01
4.875e-01,2.035e-01
4.925e-01,2.159e-01
4.975e-01,2.289e-01
5.025e-01,2.427e-01
5.075e-01,2.571e-01
5.125e-01,2.723e-01
5.175e-01,2.883e-01
5.225e-01,3.052e-01
5.275e-01,3.229e-01
5.325e-01,3.416e-01
5.375e-01,3.612e-01
5.425e-01,3.818e-01
5.475e-01,4.034e-01
5.525e-01,4.262e-01
5.575e-01,4.501e-01
5.625e-01,4.753e-01
5.675e-01,5.017e-01
5.725e-01,5.294e-01
5.775e-01,5.586e-01
5.825e-01,5.892e-01
5.875e-01,6.213e-01
5.925e-01,6.551e-01
5.975e-01,6.905e-01
6.025e-01,7.277e-01
6.075e-01,7.668e-01
6.125e-01,8.078e-01
6.175e-01,8.509e-01
6.225e-01,8.962e-01
6.275e-01,9.437e-01
6.325e-01,9.935e-01
6.375e-01,1.046e+00
6.425e-01,1.101e+00
6.475e-01,1.159e+00
6.525e-01,1.219e+00
6.575e-01,1.283e+00
6.625e-01,1.350e+00
6.675e-01,1.420e+00
6.725e-01,1.494e+00
6.775e-01,1.572e+00
6.825e-01,1.654e+00
6.875e-01,1.740e+00
6.925e-01,1.830e+00
6.975e-01,1.925e+00
7.025e-01,2.025e+00
7.075e-01,2.131e+00
7.125e-01,2.242e+00
7.175e-01,2.359e+00
7.225e-01,2.482e+00
7.275e-01,2.613e+00
7.325e-01,2.751e+00
7.375e-01,2.896e+00
7.425e-01,3.050e+00
7.475e-01,3.213e+00
7.525e-01,3.386e+00
7.575e-01,3.569e+00
7.625e-01,3.764e+00
7.675e-01,3.971e+00
7.725e-01,4.192e+00
7.775e-01,4.428e+00
7.825e-01,4.680e+00
7.875e-01,4.951e+00
7.925e-01,5.243e+00
7.975e-01,5.558e+00
8.025e-01,5.900e+00
8.075e-01,6.274e+00
8.125e-01,6.684e+00
8.175e-01,7.140e+00
8.225e-01,7.651e+00
8.275e-01,8.234e+00
8.325e-01,8.915e+00
8.375e-01,9.744e+00
8.425e-01,1.082e+01
8.475e-01,1.247e+01
8.525e-01,1.845e+01
8.575e-01,0.000e+00
8.625e-01,0.000e+00
8.675e-01,0.000e+00
8.725e-01,0.000e+00
8.775e-01,0.000e+00
8.825e-01,0.000e+00
8.875e-01,0.000e+00
8.925e-01,0.000e+00
8.975e-01,0.000e+00
9.025e-01,0.000e+00
9.075e-01,0.000e+00
9.125e-01,0.000e+00
9.175e-01,0.000e+00
9.225e-01,0.000e+00
9.275e-01,0.000e+00
9.325e-01,0.000e+00
9.375e-01,0.000e+00
9.425e-01,0.000e+00
9.475e-01,0.000e+00
9.525e-01,0.000e+00
9.575e-01,0.000e+00
9.625e-01,0.000e+00
9.675e-01,0.000e+00
9.725e-01,0.000e+00
9.775e-01,0.000e+00
9.825e-01,0.000e+00
9.875e-01,0.000e+00
9.925e-01,0.000e+00
9.975e-01,0.000e+00
