transmittance,probability_density
2.500e-03,4.263e-12
7.500e-03,3.487e-10
1.250e-02,2.883e-09
1.750e-02,1.190e-08
2.250e-02,3.483e-08
2.750e-02,8.295e-08
3.250e-02,1.721e-07
3.750e-02,3.233e-07
4.250e-02,5.637e-07
4.750e-02,9.274e-07
5.250e-02,1.456e-06
5.750e-02,2.200e-06
6.250e-02,3.218e-06
6.750e-02,4.582e-06
7.250e-02,6.373e-06
7.750e-02,8.684e-06
8.250e-02,1.162e-05
8.750e-02,1.531e-05
9.250e-02,1.989e-05
9.750e-02,2.552e-05
1.025e-01,3.237e-05
1.075e-01,4.063e-05
1.125e-01,5.051e-05
1.175e-01,6.227e-05
1.225e-01,7.617e-05
1.275e-01,9.248e-05
1.325e-01,1.115e-04
1.375e-01,1.337e-04
1.425e-01,1.593e-04
1.475e-01,1.888e-04
1.525e-01,2.226e-04
1.575e-01,2.612e-04
1.625e-01,3.052e-04
1.675e-01,3.551e-04
1.725e-01,4.116e-04
1.775e-01,4.752e-04
1.825e-01,5.467e-04
1.875e-01,6.269e-04
1.925e-01,7.167e-04
1.975e-01,8.168e-04
2.025e-01,9.282e-04
2.075e-01,1.052e-03
2.125e-01,1.189e-03
2.175e-01,1.341e-03
2.225e-01,1.509e-03
2.275e-01,1.693e-03
2.325e-01,1.897e-03
2.375e-01,2.120e-03
2.425e-01,2.365e-03
2.475e-01,2.633e-03
2.525e-01,2.927e-03
2.575e-01,3.247e-03
2.625e-01,3.597e-03
2.675e-01,3.977e-03
2.725e-01,4.391e-03
2.775e-01,4.841e-03
2.825e-01,5.329e-03
2.875e-01,5.858e-03
2.925e-01,6.431e-03
2.975e-01,7.051e-03
3.025e-01,7.721e-03
3.075e-01,8.444e-03
3.125e-01,9.224e-03
3.175e-01,1.006e-02
3.225e-01,1.097e-02
3.275e-01,1.194e-02
3.325e-01,1.299e-02
3.375e-01,1.412e-02
3.425e-01,1.532e-02
3.475e-01,1.662e-02
3.525e-01,1.801e-02
3.575e-01,1.949e-02
3.625e-01,2.108e-02
3.675e-01,2.279e-02
3.725e-01,2.461e-02
3.775e-01,2.655e-02
3.825e-01,2.863e-02
3.875e-01,3.084e-02
3.925e-01,3.320e-02
3.975e-01,3.572e-02
4.025e-01,3.840e-02
4.075e-01,4.126e-02
4.125e-01,4.430e-02
4.175e-01,4.754e-02
4.225e-01,5.098e-02
4.275e-01,5.463e-02
4.325e-01,5.852e-02
4.375e-01,6.264e-02
4.425e-01,6.702e-02
4.475e-01,7.167e-02
4.525e-01,7.660e-02
4.575e-01,8.183e-02
4.625e-01,8.737e-02
4.675e-01,9.324e-02
4.725e-01,9.946e-02
4.775e-01,1.060e-01
4.825e-01,1.130e-01
4.875e-01,1.204e-01
4.925e-01,1.282e-01
4.975e-01,1.365e-01
5.025e-01,1.452e-01
5.075e-01,1.544e-01
5.125e-01,1.642e-01
5.175e-01,1.745e-01
5.225e-01,1.854e-01
5.275e-01,1.969e-01
5.325e-01,2.090e-01
5.375e-01,2.219e-01
5.425e-01,2.354e-01
5.475e-01,2.497e-01
5.525e-01,2.648e-01
5.575e-01,2.807e-01
5.625e-01,2.974e-01
5.675e-01,3.151e-01
5.725e-01,3.338e-01
5.775e-01,3.535e-01
5.825e-01,3.742e-01
5.875e-01,3.961e-01
5.925e-01,4.192e-01
5.975e-01,4.435e-01
6.025e-01,4.691e-01
6.075e-01,4.961e-01
6.125e-01,5.246e-01
6.175e-01,5.546e-01
6.225e-01,5.862e-01
6.275e-01,6.195e-01
6.325e-01,6.546e-01
6.375e-01,6.916e-01
6.425e-01,7.307e-01
6.475e-01,7.718e-01
6.525e-01,8.151e-01
6.575e-01,8.608e-01
6.625e-01,9.090e-01
6.675e-01,9.599e-01
6.725e-01,1.013e+00
6.775e-01,1.070e+00
6.825e-01,1.130e+00
6.875e-01,1.193e+00
6.925e-01,1.259e+00
6.975e-01,1.329e+00
7.025e-01,1.403e+00
7.075e-01,1.481e+00
7.125e-01,1.564e+00
7.175e-01,1.651e+00
7.225e-01,1.744e+00
7.275e-01,1.841e+00
7.325e-01,1.945e+00
7.375e-01,2.054e+00
7.425e-01,2.171e+00
7.475e-01,2.294e+00
7.525e-01,2.424e+00
7.575e-01,2.563e+00
7.625e-01,2.711e+00
7.675e-01,2.868e+00
7.725e-01,3.035e+00
7.775e-01,3.213e+00
7.825e-01,3.403e+00
7.875e-01,3.607e+00
7.925e-01,3.825e+00
7.975e-01,4.059e+00
8.025e-01,4.311e+00
8.075e-01,4.583e+00
8.125e-01,4.877e+00
8.175e-01,5.195e+00
8.225e-01,5.543e+00
8.275e-01,5.923e+00
8.325e-01,6.342e+00
8.375e-01,6.808e+00
8.425e-01,7.329e+00
8.475e-01,7.920e+00
8.525e-01,8.603e+00
8.575e-01,9.410e+00
8.625e-01,1.040e+01
8.675e-01,1.171e+01
8.725e-01,1.369e+01
8.775e-01,1.918e+01
8.825e-01,0.000e+00
8.875e-01,0.000e+00
8.925e-01,0.000e+00
8.975e-01,0.000e+00
9.025e-01,0.000e+00
9.075e-01,0.000e+00
9.125e-01,0.000e+00
9.175e-01,0.000e+00
9.225e-01,0.000e+00
9.275e-01,0.000e+00
9.325e-01,0.000e+00
9.375e-01,0.000e+00
9.425e-01,0.000e+00
9.475e-01,0.000e+00
9.525e-01,0.000e+00
9.575e-01,0.000e+00
9.625e-01,0.000e+00
9.675e-01,0.000e+00
9.725e-01,0.000e+00
9.775e-01,0.000e+00
9.825e-01,0.000e+00
9.875e-01,0.000e+00
9.925e-01,0.000e+00
9.975e-01,0.000e+00
