transmittance,probability_density
2.500e-03,2.227e-12
7.500e-03,2.592e-10
1.250e-02,2.497e-09
1.750e-02,1.135e-08
2.250e-02,3.561e-08
2.750e-02,8.949e-08
3.250e-02,1.939e-07
3.750e-02,3.777e-07
4.250e-02,6.792e-07
4.750e-02,1.148e-06
5.250e-02,1.845e-06
5.750e-02,2.847e-06
6.250e-02,4.244e-06
6.750e-02,6.146e-06
7.250e-02,8.680e-06
7.750e-02,1.200e-05
8.250e-02,1.627e-05
8.750e-02,2.169e-05
9.250e-02,2.849e-05
9.750e-02,3.693e-05
1.025e-01,4.729e-05
1.075e-01,5.990e-05
1.125e-01,7.511e-05
1.175e-01,9.332e-05
1.225e-01,1.150e-04
1.275e-01,1.406e-04
1.325e-01,1.707e-04
1.375e-01,2.058e-04
1.425e-01,2.467e-04
1.475e-01,2.940e-04
1.525e-01,3.486e-04
1.575e-01,4.111e-04
1.625e-01,4.826e-04
1.675e-01,5.641e-04
1.725e-01,6.565e-04
1.775e-01,7.611e-04
1.825e-01,8.791e-04
1.875e-01,1.012e-03
1.925e-01,1.161e-03
1.975e-01,1.327e-03
2.025e-01,1.513e-03
2.075e-01,1.720e-03
2.125e-01,1.950e-03
2.175e-01,2.205e-03
2.225e-01,2.487e-03
2.275e-01,2.799e-03
2.325e-01,3.143e-03
2.375e-01,3.521e-03
2.425e-01,3.936e-03
2.475e-01,4.392e-03
2.525e-01,4.890e-03
2.575e-01,5.436e-03
2.625e-01,6.031e-03
2.675e-01,6.681e-03
2.725e-01,7.388e-03
2.775e-01,8.157e-03
2.825e-01,8.993e-03
2.875e-01,9.899e-03
2.925e-01,1.088e-02
2.975e-01,1.195e-02
3.025e-01,1.310e-02
3.075e-01,1.434e-02
3.125e-01,1.568e-02
3.175e-01,1.712e-02
3.225e-01,1.868e-02
3.275e-01,2.036e-02
3.325e-01,2.216e-02
3.375e-01,2.410e-02
3.425e-01,2.618e-02
3.475e-01,2.841e-02
3.525e-01,3.080e-02
3.575e-01,3.336e-02
3.625e-01,3.610e-02
3.675e-01,3.903e-02
3.725e-01,4.216e-02
3.775e-01,4.551e-02
3.825e-01,4.908e-02
3.875e-01,5.289e-02
3.925e-01,5.696e-02
3.975e-01,6.129e-02
4.025e-01,6.590e-02
4.075e-01,7.081e-02
4.125e-01,7.604e-02
4.175e-01,8.159e-02
4.225e-01,8.750e-02
4.275e-01,9.377e-02
4.325e-01,1.004e-01
4.375e-01,1.075e-01
4.425e-01,1.150e-01
4.475e-01,1.229e-01
4.525e-01,1.314e-01
4.575e-01,1.403e-01
4.625e-01,1.498e-01
4.675e-01,1.598e-01
4.725e-01,1.704e-01
4.775e-01,1.816e-01
4.825e-01,1.935e-01
4.875e-01,2.060e-01
4.925e-01,2.193e-01
4.975e-01,2.333e-01
5.025e-01,2.481e-01
5.075e-01,2.637e-01
5.125e-01,2.802e-01
5.175e-01,2.977e-01
5.225e-01,3.160e-01
5.275e-01,3.354e-01
5.325e-01,3.559e-01
5.375e-01,3.775e-01
5.425e-01,4.002e-01
5.475e-01,4.242e-01
5.525e-01,4.495e-01
5.575e-01,4.761e-01
5.625e-01,5.042e-01
5.675e-01,5.337e-01
5.725e-01,5.649e-01
5.775e-01,5.977e-01
5.825e-01,6.322e-01
5.875e-01,6.686e-01
5.925e-01,7.069e-01
5.975e-01,7.472e-01
6.025e-01,7.896e-01
6.075e-01,8.343e-01
6.125e-01,8.813e-01
6.175e-01,9.307e-01
6.225e-01,9.828e-01
6.275e-01,1.038e+00
6.325e-01,1.095e+00
6.375e-01,1.156e+00
6.425e-01,1.220e+00
6.475e-01,1.287e+00
6.525e-01,1.358e+00
6.575e-01,1.433e+00
6.625e-01,1.511e+00
6.675e-01,1.594e+00
6.725e-01,1.682e+00
6.775e-01,1.773e+00
6.825e-01,1.870e+00
6.875e-01,1.972e+00
6.925e-01,2.080e+00
6.975e-01,2.194e+00
7.025e-01,2.314e+00
7.075e-01,2.441e+00
7.125e-01,2.574e+00
7.175e-01,2.716e+00
7.225e-01,2.866e+00
7.275e-01,3.024e+00
7.325e-01,3.192e+00
7.375e-01,3.370e+00
7.425e-01,3.559e+00
7.475e-01,3.759e+00
7.525e-01,3.973e+00
7.575e-01,4.201e+00
7.625e-01,4.444e+00
7.675e-01,4.703e+00
7.725e-01,4.982e+00
7.775e-01,5.281e+00
7.825e-01,5.604e+00
7.875e-01,5.954e+00
7.925e-01,6.335e+00
7.975e-01,6.751e+00
8.025e-01,7.211e+00
8.075e-01,7.723e+00
8.125e-01,8.302e+00
8.175e-01,8.970e+00
8.225e-01,9.767e+00
8.275e-01,1.077e+01
8.325e-01,1.220e+01
8.375e-01,1.539e+01
8.425e-01,0.000e+00
8.475e-01,0.000e+00
8.525e-01,0.000e+00
8.575e-01,0.000e+00
8.625e-01,0.000e+00
8.675e-01,0.000e+00
8.725e-01,0.000e+00
8.775e-01,0.000e+00
8.825e-01,0.000e+00
8.875e-01,0.000e+00
8.925e-01,0.000e+00
8.975e-01,0.000e+00
9.025e-01,0.000e+00
9.075e-01,0.000e+00
9.125e-01,0.000e+00
9.175e-01,0.000e+00
9.225e-01,0.000e+00
9.275e-01,0.000e+00
9.325e-01,0.000e+00
9.375e-01,0.000e+00
9.425e-01,0.000e+00
9.475e-01,0.000e+00
9.525e-01,0.000e+00
9.575e-01,0.000e+00
9.625e-01,0.000e+00
9.675e-01,0.000e+00
9.725e-01,0.000e+00
9.775e-01,0.000e+00
9.825e-01,0.000e+00
9.875e-01,0.000e+00
9.925e-01,0.000e+00
9.975e-01,0.000e+00
