transmittance,probability_density
2.500e-03,7.864e-14
7.500e-03,6.718e-12
1.250e-02,5.876e-11
1.750e-02,2.555e-10
2.250e-02,7.843e-10
2.750e-02,1.951e-09
3.250e-02,4.217e-09
3.750e-02,8.232e-09
4.250e-02,1.488e-08
4.750e-02,2.534e-08
5.250e-02,4.111e-08
5.750e-02,6.409e-08
6.250e-02,9.664e-08
6.750e-02,1.417e-07
7.250e-02,2.026e-07
7.750e-02,2.837e-07
8.250e-02,3.900e-07
8.750e-02,5.272e-07
9.250e-02,7.022e-07
9.750e-02,9.231e-07
1.025e-01,1.199e-06
1.075e-01,1.541e-06
1.125e-01,1.960e-06
1.175e-01,2.471e-06
1.225e-01,3.089e-06
1.275e-01,3.833e-06
1.325e-01,4.722e-06
1.375e-01,5.778e-06
1.425e-01,7.028e-06
1.475e-01,8.500e-06
1.525e-01,1.022e-05
1.575e-01,1.224e-05
1.625e-01,1.458e-05
1.675e-01,1.729e-05
1.725e-01,2.042e-05
1.775e-01,2.402e-05
1.825e-01,2.815e-05
1.875e-01,3.287e-05
1.925e-01,3.826e-05
1.975e-01,4.439e-05
2.025e-01,5.134e-05
2.075e-01,5.922e-05
2.125e-01,6.811e-05
2.175e-01,7.814e-05
2.225e-01,8.942e-05
2.275e-01,1.021e-04
2.325e-01,1.163e-04
2.375e-01,1.321e-04
2.425e-01,1.498e-04
2.475e-01,1.696e-04
2.525e-01,1.916e-04
2.575e-01,2.160e-04
2.625e-01,2.431e-04
2.675e-01,2.731e-04
2.725e-01,3.063e-04
2.775e-01,3.430e-04
2.825e-01,3.835e-04
2.875e-01,4.282e-04
2.925e-01,4.774e-04
2.975e-01,5.315e-04
3.025e-01,5.909e-04
3.075e-01,6.562e-04
3.125e-01,7.277e-04
3.175e-01,8.061e-04
3.225e-01,8.918e-04
3.275e-01,9.856e-04
3.325e-01,1.088e-03
3.375e-01,1.200e-03
3.425e-01,1.322e-03
3.475e-01,1.454e-03
3.525e-01,1.599e-03
3.575e-01,1.756e-03
3.625e-01,1.928e-03
3.675e-01,2.113e-03
3.725e-01,2.315e-03
3.775e-01,2.534e-03
3.825e-01,2.772e-03
3.875e-01,3.029e-03
3.925e-01,3.308e-03
3.975e-01,3.609e-03
4.025e-01,3.936e-03
4.075e-01,4.289e-03
4.125e-01,4.670e-03
4.175e-01,5.082e-03
4.225e-01,5.526e-03
4.275e-01,6.006e-03
4.325e-01,6.524e-03
4.375e-01,7.081e-03
4.425e-01,7.683e-03
4.475e-01,8.330e-03
4.525e-01,9.027e-03
4.575e-01,9.778e-03
4.625e-01,1.059e-02
4.675e-01,1.145e-02
4.725e-01,1.239e-02
4.775e-01,1.339e-02
4.825e-01,1.447e-02
4.875e-01,1.563e-02
4.925e-01,1.687e-02
4.975e-01,1.820e-02
5.025e-01,1.964e-02
5.075e-01,2.117e-02
5.125e-01,2.282e-02
5.175e-01,2.459e-02
5.225e-01,2.648e-02
5.275e-01,2.851e-02
5.325e-01,3.069e-02
5.375e-01,3.302e-02
5.425e-01,3.552e-02
5.475e-01,3.819e-02
5.525e-01,4.106e-02
5.575e-01,4.412e-02
5.625e-01,4.740e-02
5.675e-01,5.092e-02
5.725e-01,5.468e-02
5.775e-01,5.870e-02
5.825e-01,6.300e-02
5.875e-01,6.761e-02
5.925e-01,7.253e-02
5.975e-01,7.780e-02
6.025e-01,8.344e-02
6.075e-01,8.946e-02
6.125e-01,9.591e-02
6.175e-01,1.028e-01
6.225e-01,1.102e-01
6.275e-01,1.181e-01
6.325e-01,1.265e-01
6.375e-01,1.355e-01
6.425e-01,1.452e-01
6.475e-01,1.555e-01
6.525e-01,1.665e-01
6.575e-01,1.783e-01
6.625e-01,1.909e-01
6.675e-01,2.044e-01
6.725e-01,2.189e-01
6.775e-01,2.343e-01
6.825e-01,2.509e-01
6.875e-01,2.686e-01
6.925e-01,2.876e-01
6.975e-01,3.079e-01
7.025e-01,3.297e-01
7.075e-01,3.530e-01
7.125e-01,3.779e-01
7.175e-01,4.047e-01
7.225e-01,4.334e-01
7.275e-01,4.642e-01
7.325e-01,4.973e-01
7.375e-01,5.327e-01
7.425e-01,5.708e-01
7.475e-01,6.117e-01
7.525e-01,6.557e-01
7.575e-01,7.029e-01
7.625e-01,7.538e-01
7.675e-01,8.086e-01
7.725e-01,8.676e-01
7.775e-01,9.311e-01
7.825e-01,9.997e-01
7.875e-01,1.074e+00
7.925e-01,1.154e+00
7.975e-01,1.240e+00
8.025e-01,1.334e+00
8.075e-01,1.435e+00
8.125e-01,1.545e+00
8.175e-01,1.665e+00
8.225e-01,1.795e+00
8.275e-01,1.936e+00
8.325e-01,2.091e+00
8.375e-01,2.259e+00
8.425e-01,2.444e+00
8.475e-01,2.647e+00
8.525e-01,2.870e+00
8.575e-01,3.116e+00
8.625e-01,3.387e+00
8.675e-01,3.689e+00
8.725e-01,4.025e+00
8.775e-01,4.401e+00
8.825e-01,4.824e+00
8.875e-01,5.301e+00
8.925e-01,5.846e+00
8.975e-01,6.471e+00
9.025e-01,7.197e+00
9.075e-01,8.050e+00
9.125e-01,9.072e+00
9.175e-01,1.032e+01
9.225e-01,1.191e+01
9.275e-01,1.403e+01
9.325e-01,1.714e+01
9.375e-01,2.281e+01
9.425e-01,0.000e+00
9.475e-01,0.000e+00
9.525e-01,0.000e+00
9.575e-01,0.000e+00
9.625e-01,0.000e+00
9.675e-01,0.000e+00
9.725e-01,0.000e+00
9.775e-01,0.000e+00
9.825e-01,0.000e+00
9.875e-01,0.000e+00
9.925e-01,0.000e+00
9.975e-01,0.000e+00
