transmittance,probability_density
2.500e-03,1.506e-14
7.500e-03,1.263e-12
1.250e-02,1.111e-11
1.750e-02,4.883e-11
2.250e-02,1.516e-10
2.750e-02,3.818e-10
3.250e-02,8.345e-10
3.750e-02,1.648e-09
4.250e-02,3.013e-09
4.750e-02,5.185e-09
5.250e-02,8.501e-09
5.750e-02,1.339e-08
6.250e-02,2.040e-08
6.750e-02,3.019e-08
7.250e-02,4.361e-08
7.750e-02,6.164e-08
8.250e-02,8.551e-08
8.750e-02,1.166e-07
9.250e-02,1.568e-07
9.750e-02,2.079e-07
1.025e-01,2.724e-07
1.075e-01,3.529e-07
1.125e-01,4.528e-07
1.175e-01,5.756e-07
1.225e-01,7.255e-07
1.275e-01,9.073e-07
1.325e-01,1.127e-06
1.375e-01,1.390e-06
1.425e-01,1.703e-06
1.475e-01,2.076e-06
1.525e-01,2.516e-06
1.575e-01,3.034e-06
1.625e-01,3.641e-06
1.675e-01,4.350e-06
1.725e-01,5.174e-06
1.775e-01,6.131e-06
1.825e-01,7.237e-06
1.875e-01,8.511e-06
1.925e-01,9.977e-06
1.975e-01,1.166e-05
2.025e-01,1.358e-05
2.075e-01,1.577e-05
2.125e-01,1.826e-05
2.175e-01,2.109e-05
2.225e-01,2.430e-05
2.275e-01,2.792e-05
2.325e-01,3.202e-05
2.375e-01,3.663e-05
2.425e-01,4.181e-05
2.475e-01,4.763e-05
2.525e-01,5.416e-05
2.575e-01,6.146e-05
2.625e-01,6.962e-05
2.675e-01,7.872e-05
2.725e-01,8.886e-05
2.775e-01,1.002e-04
2.825e-01,1.127e-04
2.875e-01,1.266e-04
2.925e-01,1.421e-04
2.975e-01,1.592e-04
3.025e-01,1.781e-04
3.075e-01,1.990e-04
3.125e-01,2.220e-04
3.175e-01,2.475e-04
3.225e-01,2.755e-04
3.275e-01,3.063e-04
3.325e-01,3.402e-04
3.375e-01,3.775e-04
3.425e-01,4.184e-04
3.475e-01,4.633e-04
3.525e-01,5.125e-04
3.575e-01,5.663e-04
3.625e-01,6.253e-04
3.675e-01,6.897e-04
3.725e-01,7.602e-04
3.775e-01,8.371e-04
3.825e-01,9.211e-04
3.875e-01,1.013e-03
3.925e-01,1.113e-03
3.975e-01,1.221e-03
4.025e-01,1.340e-03
4.075e-01,1.469e-03
4.125e-01,1.609e-03
4.175e-01,1.761e-03
4.225e-01,1.927e-03
4.275e-01,2.107e-03
4.325e-01,2.302e-03
4.375e-01,2.514e-03
4.425e-01,2.743e-03
4.475e-01,2.992e-03
4.525e-01,3.262e-03
4.575e-01,3.555e-03
4.625e-01,3.871e-03
4.675e-01,4.214e-03
4.725e-01,4.585e-03
4.775e-01,4.986e-03
4.825e-01,5.419e-03
4.875e-01,5.888e-03
4.925e-01,6.395e-03
4.975e-01,6.942e-03
5.025e-01,7.533e-03
5.075e-01,8.172e-03
5.125e-01,8.861e-03
5.175e-01,9.604e-03
5.225e-01,1.041e-02
5.275e-01,1.127e-02
5.325e-01,1.221e-02
5.375e-01,1.321e-02
5.425e-01,1.430e-02
5.475e-01,1.547e-02
5.525e-01,1.673e-02
5.575e-01,1.809e-02
5.625e-01,1.955e-02
5.675e-01,2.113e-02
5.725e-01,2.283e-02
5.775e-01,2.466e-02
5.825e-01,2.663e-02
5.875e-01,2.875e-02
5.925e-01,3.104e-02
5.975e-01,3.350e-02
6.025e-01,3.615e-02
6.075e-01,3.900e-02
6.125e-01,4.207e-02
6.175e-01,4.538e-02
6.225e-01,4.894e-02
6.275e-01,5.277e-02
6.325e-01,5.690e-02
6.375e-01,6.134e-02
6.425e-01,6.613e-02
6.475e-01,7.128e-02
6.525e-01,7.682e-02
6.575e-01,8.280e-02
6.625e-01,8.923e-02
6.675e-01,9.616e-02
6.725e-01,1.036e-01
6.775e-01,1.117e-01
6.825e-01,1.203e-01
6.875e-01,1.297e-01
6.925e-01,1.398e-01
6.975e-01,1.506e-01
7.025e-01,1.623e-01
7.075e-01,1.750e-01
7.125e-01,1.886e-01
7.175e-01,2.034e-01
7.225e-01,2.193e-01
7.275e-01,2.364e-01
7.325e-01,2.550e-01
7.375e-01,2.751e-01
7.425e-01,2.967e-01
7.475e-01,3.202e-01
7.525e-01,3.456e-01
7.575e-01,3.731e-01
7.625e-01,4.029e-01
7.675e-01,4.353e-01
7.725e-01,4.703e-01
7.775e-01,5.084e-01
7.825e-01,5.497e-01
7.875e-01,5.947e-01
7.925e-01,6.436e-01
7.975e-01,6.968e-01
8.025e-01,7.549e-01
8.075e-01,8.182e-01
8.125e-01,8.873e-01
8.175e-01,9.629e-01
8.225e-01,1.046e+00
8.275e-01,1.136e+00
8.325e-01,1.236e+00
8.375e-01,1.345e+00
8.425e-01,1.466e+00
8.475e-01,1.599e+00
8.525e-01,1.746e+00
8.575e-01,1.909e+00
8.625e-01,2.090e+00
8.675e-01,2.291e+00
8.725e-01,2.516e+00
8.775e-01,2.767e+00
8.825e-01,3.050e+00
8.875e-01,3.370e+00
8.925e-01,3.732e+00
8.975e-01,4.145e+00
9.025e-01,4.619e+00
9.075e-01,5.167e+00
9.125e-01,5.806e+00
9.175e-01,6.559e+00
9.225e-01,7.458e+00
9.275e-01,8.551e+00
9.325e-01,9.907e+00
9.375e-01,1.165e+01
9.425e-01,1.398e+01
9.475e-01,1.736e+01
9.525e-01,2.306e+01
9.575e-01,3.883e+01
9.625e-01,0.000e+00
9.675e-01,0.000e+00
9.725e-01,0.000e+00
9.775e-01,0.000e+00
9.825e-01,0.000e+00
9.875e-01,0.000e+00
9.925e-01,0.000e+00
9.975e-01,0.000e+00
