transmittance,probability_density
1.685e-01,2.449e-07
1.727e-01,2.860e-07
1.769e-01,3.332e-07
1.810e-01,3.871e-07
1.852e-01,4.486e-07
1.894e-01,5.185e-07
1.935e-01,5.979e-07
1.977e-01,6.879e-07
2.019e-01,7.897e-07
2.060e-01,9.046e-07
2.102e-01,1.034e-06
2.144e-01,1.180e-06
2.186e-01,1.344e-06
2.227e-01,1.528e-06
2.269e-01,1.734e-06
2.311e-01,1.965e-06
2.352e-01,2.223e-06
2.394e-01,2.511e-06
2.436e-01,2.831e-06
2.477e-01,3.188e-06
2.519e-01,3.586e-06
2.561e-01,4.027e-06
2.602e-01,4.516e-06
2.644e-01,5.059e-06
2.686e-01,5.660e-06
2.727e-01,6.324e-06
2.769e-01,7.059e-06
2.811e-01,7.870e-06
2.852e-01,8.765e-06
2.894e-01,9.751e-06
2.936e-01,1.084e-05
2.977e-01,1.203e-05
3.019e-01,1.335e-05
3.061e-01,1.479e-05
3.102e-01,1.638e-05
3.144e-01,1.811e-05
3.186e-01,2.002e-05
3.227e-01,2.211e-05
3.269e-01,2.440e-05
3.311e-01,2.690e-05
3.352e-01,2.964e-05
3.394e-01,3.263e-05
3.436e-01,3.589e-05
3.478e-01,3.946e-05
3.519e-01,4.335e-05
3.561e-01,4.759e-05
3.603e-01,5.221e-05
3.644e-01,5.724e-05
3.686e-01,6.272e-05
3.728e-01,6.868e-05
3.769e-01,7.517e-05
3.811e-01,8.222e-05
3.853e-01,8.988e-05
3.894e-01,9.820e-05
3.936e-01,1.072e-04
3.978e-01,1.170e-04
4.019e-01,1.277e-04
4.061e-01,1.392e-04
4.103e-01,1.517e-04
4.144e-01,1.653e-04
4.186e-01,1.800e-04
4.228e-01,1.959e-04
4.269e-01,2.131e-04
4.311e-01,2.317e-04
4.353e-01,2.519e-04
4.394e-01,2.737e-04
4.436e-01,2.973e-04
4.478e-01,3.227e-04
4.519e-01,3.503e-04
4.561e-01,3.800e-04
4.603e-01,4.122e-04
4.644e-01,4.469e-04
4.686e-01,4.843e-04
4.728e-01,5.247e-04
4.770e-01,5.684e-04
4.811e-01,6.154e-04
4.853e-01,6.662e-04
4.895e-01,7.209e-04
4.936e-01,7.800e-04
4.978e-01,8.436e-04
5.020e-01,9.122e-04
5.061e-01,9.861e-04
5.103e-01,1.066e-03
5.145e-01,1.151e-03
5.186e-01,1.244e-03
5.228e-01,1.343e-03
5.270e-01,1.451e-03
5.311e-01,1.566e-03
5.353e-01,1.690e-03
5.395e-01,1.824e-03
5.436e-01,1.968e-03
5.478e-01,2.123e-03
5.520e-01,2.289e-03
5.561e-01,2.469e-03
5.603e-01,2.662e-03
5.645e-01,2.869e-03
5.686e-01,3.093e-03
5.728e-01,3.333e-03
5.770e-01,3.592e-03
5.811e-01,3.870e-03
5.853e-01,4.169e-03
5.895e-01,4.491e-03
5.936e-01,4.837e-03
5.978e-01,5.210e-03
6.020e-01,5.610e-03
6.061e-01,6.041e-03
6.103e-01,6.504e-03
6.145e-01,7.003e-03
6.187e-01,7.539e-03
6.228e-01,8.116e-03
6.270e-01,8.736e-03
6.312e-01,9.404e-03
6.353e-01,1.012e-02
6.395e-01,1.089e-02
6.437e-01,1.173e-02
6.478e-01,1.262e-02
6.520e-01,1.358e-02
6.562e-01,1.462e-02
6.603e-01,1.574e-02
6.645e-01,1.694e-02
6.687e-01,1.823e-02
6.728e-01,1.963e-02
6.770e-01,2.113e-02
6.812e-01,2.274e-02
6.853e-01,2.448e-02
6.895e-01,2.636e-02
6.937e-01,2.839e-02
6.978e-01,3.057e-02
7.020e-01,3.292e-02
7.062e-01,3.545e-02
7.103e-01,3.819e-02
7.145e-01,4.114e-02
7.187e-01,4.433e-02
7.228e-01,4.777e-02
7.270e-01,5.149e-02
7.312e-01,5.551e-02
7.353e-01,5.984e-02
7.395e-01,6.454e-02
7.437e-01,6.961e-02
7.479e-01,7.510e-02
7.520e-01,8.104e-02
7.562e-01,8.747e-02
7.604e-01,9.443e-02
7.645e-01,1.020e-01
7.687e-01,1.102e-01
7.729e-01,1.190e-01
7.770e-01,1.287e-01
7.812e-01,1.391e-01
7.854e-01,1.505e-01
7.895e-01,1.629e-01
7.937e-01,1.763e-01
7.979e-01,1.909e-01
8.020e-01,2.069e-01
8.062e-01,2.243e-01
8.104e-01,2.432e-01
8.145e-01,2.639e-01
8.187e-01,2.865e-01
8.229e-01,3.113e-01
8.270e-01,3.384e-01
8.312e-01,3.680e-01
8.354e-01,4.006e-01
8.395e-01,4.363e-01
8.437e-01,4.757e-01
8.479e-01,5.189e-01
8.520e-01,5.666e-01
8.562e-01,6.193e-01
8.604e-01,6.775e-01
8.645e-01,7.420e-01
8.687e-01,8.135e-01
8.729e-01,8.930e-01
8.771e-01,9.815e-01
8.812e-01,1.080e+00
8.854e-01,1.191e+00
8.896e-01,1.314e+00
8.937e-01,1.454e+00
8.979e-01,1.610e+00
9.021e-01,1.788e+00
9.062e-01,1.989e+00
9.104e-01,2.219e+00
9.146e-01,2.481e+00
9.187e-01,2.783e+00
9.229e-01,3.133e+00
9.271e-01,3.539e+00
9.312e-01,4.016e+00
9.354e-01,4.578e+00
9.396e-01,5.250e+00
9.437e-01,6.060e+00
9.479e-01,7.053e+00
9.521e-01,8.289e+00
9.562e-01,9.865e+00
9.604e-01,1.193e+01
9.646e-01,1.477e+01
9.687e-01,1.891e+01
9.729e-01,2.568e+01
9.771e-01,3.984e+01
9.812e-01,0.000e+00
9.854e-01,0.000e+00
9.896e-01,0.000e+00
9.937e-01,0.000e+00
9.979e-01,0.000e+00
