transmittance,probability_density
2.915e-01,6.023e-07
2.951e-01,6.642e-07
2.986e-01,7.319e-07
3.022e-01,8.059e-07
3.057e-01,8.869e-07
3.093e-01,9.753e-07
3.128e-01,1.072e-06
3.164e-01,1.177e-06
3.199e-01,1.292e-06
3.235e-01,1.417e-06
3.270e-01,1.554e-06
3.306e-01,1.702e-06
3.341e-01,1.864e-06
3.377e-01,2.040e-06
3.412e-01,2.232e-06
3.448e-01,2.440e-06
3.483e-01,2.666e-06
3.519e-01,2.912e-06
3.554e-01,3.179e-06
3.590e-01,3.469e-06
3.625e-01,3.783e-06
3.661e-01,4.124e-06
3.696e-01,4.494e-06
3.732e-01,4.895e-06
3.767e-01,5.330e-06
3.803e-01,5.800e-06
3.838e-01,6.310e-06
3.874e-01,6.861e-06
3.909e-01,7.458e-06
3.945e-01,8.104e-06
3.980e-01,8.802e-06
4.016e-01,9.557e-06
4.051e-01,1.037e-05
4.087e-01,1.126e-05
4.122e-01,1.221e-05
4.158e-01,1.324e-05
4.194e-01,1.435e-05
4.229e-01,1.555e-05
4.265e-01,1.685e-05
4.300e-01,1.824e-05
4.336e-01,1.975e-05
4.371e-01,2.138e-05
4.407e-01,2.314e-05
4.442e-01,2.503e-05
4.478e-01,2.707e-05
4.513e-01,2.927e-05
4.549e-01,3.164e-05
4.584e-01,3.419e-05
4.620e-01,3.694e-05
4.655e-01,3.990e-05
4.691e-01,4.309e-05
4.726e-01,4.652e-05
4.762e-01,5.022e-05
4.797e-01,5.420e-05
4.833e-01,5.849e-05
4.868e-01,6.310e-05
4.904e-01,6.806e-05
4.939e-01,7.339e-05
4.975e-01,7.914e-05
5.010e-01,8.531e-05
5.046e-01,9.195e-05
5.081e-01,9.910e-05
5.117e-01,1.068e-04
5.152e-01,1.150e-04
5.188e-01,1.239e-04
5.223e-01,1.335e-04
5.259e-01,1.437e-04
5.294e-01,1.548e-04
5.330e-01,1.666e-04
5.365e-01,1.794e-04
5.401e-01,1.931e-04
5.436e-01,2.078e-04
5.472e-01,2.236e-04
5.508e-01,2.406e-04
5.543e-01,2.588e-04
5.579e-01,2.785e-04
5.614e-01,2.995e-04
5.650e-01,3.222e-04
5.685e-01,3.465e-04
5.721e-01,3.727e-04
5.756e-01,4.008e-04
5.792e-01,4.310e-04
5.827e-01,4.634e-04
5.863e-01,4.983e-04
5.898e-01,5.357e-04
5.934e-01,5.759e-04
5.969e-01,6.192e-04
6.005e-01,6.656e-04
6.040e-01,7.155e-04
6.076e-01,7.692e-04
6.111e-01,8.268e-04
6.147e-01,8.888e-04
6.182e-01,9.554e-04
6.218e-01,1.027e-03
6.253e-01,1.104e-03
6.289e-01,1.187e-03
6.324e-01,1.275e-03
6.360e-01,1.371e-03
6.395e-01,1.474e-03
6.431e-01,1.584e-03
6.466e-01,1.703e-03
6.502e-01,1.831e-03
6.537e-01,1.969e-03
6.573e-01,2.117e-03
6.608e-01,2.276e-03
6.644e-01,2.448e-03
6.679e-01,2.632e-03
6.715e-01,2.831e-03
6.751e-01,3.045e-03
6.786e-01,3.275e-03
6.822e-01,3.523e-03
6.857e-01,3.790e-03
6.893e-01,4.078e-03
6.928e-01,4.388e-03
6.964e-01,4.722e-03
6.999e-01,5.083e-03
7.035e-01,5.471e-03
7.070e-01,5.891e-03
7.106e-01,6.343e-03
7.141e-01,6.831e-03
7.177e-01,7.358e-03
7.212e-01,7.927e-03
7.248e-01,8.541e-03
7.283e-01,9.204e-03
7.319e-01,9.921e-03
7.354e-01,1.070e-02
7.390e-01,1.153e-02
7.425e-01,1.244e-02
7.461e-01,1.342e-02
7.496e-01,1.448e-02
7.532e-01,1.563e-02
7.567e-01,1.688e-02
7.603e-01,1.823e-02
7.638e-01,1.969e-02
7.674e-01,2.127e-02
7.709e-01,2.300e-02
7.745e-01,2.486e-02
7.780e-01,2.689e-02
7.816e-01,2.910e-02
7.851e-01,3.149e-02
7.887e-01,3.410e-02
7.922e-01,3.694e-02
7.958e-01,4.002e-02
7.993e-01,4.339e-02
8.029e-01,4.706e-02
8.065e-01,5.106e-02
8.100e-01,5.543e-02
8.136e-01,6.020e-02
8.171e-01,6.542e-02
8.207e-01,7.113e-02
8.242e-01,7.738e-02
8.278e-01,8.422e-02
8.313e-01,9.173e-02
8.349e-01,9.998e-02
8.384e-01,1.090e-01
8.420e-01,1.190e-01
8.455e-01,1.300e-01
8.491e-01,1.420e-01
8.526e-01,1.554e-01
8.562e-01,1.701e-01
8.597e-01,1.864e-01
8.633e-01,2.044e-01
8.668e-01,2.244e-01
8.704e-01,2.466e-01
8.739e-01,2.712e-01
8.775e-01,2.987e-01
8.810e-01,3.294e-01
8.846e-01,3.636e-01
8.881e-01,4.020e-01
8.917e-01,4.450e-01
8.952e-01,4.934e-01
8.988e-01,5.479e-01
9.023e-01,6.095e-01
9.059e-01,6.793e-01
9.094e-01,7.585e-01
9.130e-01,8.487e-01
9.165e-01,9.519e-01
9.201e-01,1.070e+00
9.236e-01,1.206e+00
9.272e-01,1.364e+00
9.307e-01,1.547e+00
9.343e-01,1.761e+00
9.379e-01,2.012e+00
9.414e-01,2.308e+00
9.450e-01,2.662e+00
9.485e-01,3.086e+00
9.521e-01,3.600e+00
9.556e-01,4.231e+00
9.592e-01,5.014e+00
9.627e-01,6.003e+00
9.663e-01,7.276e+00
9.698e-01,8.955e+00
9.734e-01,1.124e+01
9.769e-01,1.451e+01
9.805e-01,1.947e+01
9.840e-01,2.789e+01
9.876e-01,4.562e+01
9.911e-01,1.307e+02
9.947e-01,0.000e+00
9.982e-01,0.000e+00
