transmittance,probability_density
2.289e-01,4.270e-07
2.328e-01,4.813e-07
2.367e-01,5.418e-07
2.405e-01,6.091e-07
2.444e-01,6.838e-07
2.483e-01,7.668e-07
2.521e-01,8.588e-07
2.560e-01,9.607e-07
2.599e-01,1.073e-06
2.637e-01,1.198e-06
2.676e-01,1.336e-06
2.714e-01,1.488e-06
2.753e-01,1.656e-06
2.792e-01,1.841e-06
2.830e-01,2.044e-06
2.869e-01,2.268e-06
2.908e-01,2.514e-06
2.946e-01,2.784e-06
2.985e-01,3.081e-06
3.024e-01,3.407e-06
3.062e-01,3.764e-06
3.101e-01,4.155e-06
3.140e-01,4.584e-06
3.178e-01,5.053e-06
3.217e-01,5.566e-06
3.256e-01,6.126e-06
3.294e-01,6.739e-06
3.333e-01,7.407e-06
3.372e-01,8.137e-06
3.410e-01,8.933e-06
3.449e-01,9.801e-06
3.487e-01,1.075e-05
3.526e-01,1.178e-05
3.565e-01,1.290e-05
3.603e-01,1.412e-05
3.642e-01,1.544e-05
3.681e-01,1.689e-05
3.719e-01,1.845e-05
3.758e-01,2.016e-05
3.797e-01,2.201e-05
3.835e-01,2.401e-05
3.874e-01,2.619e-05
3.913e-01,2.855e-05
3.951e-01,3.111e-05
3.990e-01,3.389e-05
4.029e-01,3.690e-05
4.067e-01,4.016e-05
4.106e-01,4.369e-05
4.145e-01,4.751e-05
4.183e-01,5.164e-05
4.222e-01,5.611e-05
4.260e-01,6.095e-05
4.299e-01,6.618e-05
4.338e-01,7.183e-05
4.376e-01,7.794e-05
4.415e-01,8.455e-05
4.454e-01,9.168e-05
4.492e-01,9.938e-05
4.531e-01,1.077e-04
4.570e-01,1.167e-04
4.608e-01,1.264e-04
4.647e-01,1.368e-04
4.686e-01,1.481e-04
4.724e-01,1.603e-04
4.763e-01,1.734e-04
4.802e-01,1.875e-04
4.840e-01,2.028e-04
4.879e-01,2.192e-04
4.918e-01,2.369e-04
4.956e-01,2.560e-04
4.995e-01,2.766e-04
5.033e-01,2.987e-04
5.072e-01,3.226e-04
5.111e-01,3.483e-04
5.149e-01,3.759e-04
5.188e-01,4.057e-04
5.227e-01,4.378e-04
5.265e-01,4.723e-04
5.304e-01,5.095e-04
5.343e-01,5.494e-04
5.381e-01,5.925e-04
5.420e-01,6.388e-04
5.459e-01,6.886e-04
5.497e-01,7.422e-04
5.536e-01,7.999e-04
5.575e-01,8.620e-04
5.613e-01,9.287e-04
5.652e-01,1.001e-03
5.691e-01,1.078e-03
5.729e-01,1.161e-03
5.768e-01,1.250e-03
5.806e-01,1.346e-03
5.845e-01,1.450e-03
5.884e-01,1.561e-03
5.922e-01,1.681e-03
5.961e-01,1.809e-03
6.000e-01,1.948e-03
6.038e-01,2.097e-03
6.077e-01,2.257e-03
6.116e-01,2.429e-03
6.154e-01,2.615e-03
6.193e-01,2.814e-03
6.232e-01,3.028e-03
6.270e-01,3.259e-03
6.309e-01,3.508e-03
6.348e-01,3.775e-03
6.386e-01,4.063e-03
6.425e-01,4.372e-03
6.464e-01,4.705e-03
6.502e-01,5.064e-03
6.541e-01,5.450e-03
6.579e-01,5.866e-03
6.618e-01,6.314e-03
6.657e-01,6.796e-03
6.695e-01,7.316e-03
6.734e-01,7.875e-03
6.773e-01,8.478e-03
6.811e-01,9.128e-03
6.850e-01,9.829e-03
6.889e-01,1.058e-02
6.927e-01,1.140e-02
6.966e-01,1.228e-02
7.005e-01,1.322e-02
7.043e-01,1.425e-02
7.082e-01,1.535e-02
7.121e-01,1.654e-02
7.159e-01,1.783e-02
7.198e-01,1.921e-02
7.237e-01,2.072e-02
7.275e-01,2.234e-02
7.314e-01,2.409e-02
7.352e-01,2.599e-02
7.391e-01,2.804e-02
7.430e-01,3.026e-02
7.468e-01,3.266e-02
7.507e-01,3.526e-02
7.546e-01,3.808e-02
7.584e-01,4.113e-02
7.623e-01,4.444e-02
7.662e-01,4.803e-02
7.700e-01,5.193e-02
7.739e-01,5.616e-02
7.778e-01,6.076e-02
7.816e-01,6.576e-02
7.855e-01,7.119e-02
7.894e-01,7.710e-02
7.932e-01,8.354e-02
7.971e-01,9.055e-02
8.010e-01,9.819e-02
8.048e-01,1.065e-01
8.087e-01,1.156e-01
8.125e-01,1.256e-01
8.164e-01,1.364e-01
8.203e-01,1.483e-01
8.241e-01,1.613e-01
8.280e-01,1.756e-01
8.319e-01,1.913e-01
8.357e-01,2.085e-01
8.396e-01,2.273e-01
8.435e-01,2.481e-01
8.473e-01,2.710e-01
8.512e-01,2.963e-01
8.551e-01,3.242e-01
8.589e-01,3.550e-01
8.628e-01,3.892e-01
8.667e-01,4.270e-01
8.705e-01,4.691e-01
8.744e-01,5.159e-01
8.783e-01,5.681e-01
8.821e-01,6.263e-01
8.860e-01,6.915e-01
8.898e-01,7.646e-01
8.937e-01,8.467e-01
8.976e-01,9.393e-01
9.014e-01,1.044e+00
9.053e-01,1.162e+00
9.092e-01,1.297e+00
9.130e-01,1.451e+00
9.169e-01,1.627e+00
9.208e-01,1.829e+00
9.246e-01,2.063e+00
9.285e-01,2.335e+00
9.324e-01,2.652e+00
9.362e-01,3.026e+00
9.401e-01,3.468e+00
9.440e-01,3.997e+00
9.478e-01,4.636e+00
9.517e-01,5.416e+00
9.556e-01,6.384e+00
9.594e-01,7.606e+00
9.633e-01,9.183e+00
9.671e-01,1.128e+01
9.710e-01,1.419e+01
9.749e-01,1.847e+01
9.787e-01,2.543e+01
9.826e-01,3.919e+01
9.865e-01,9.430e+01
9.903e-01,0.000e+00
9.942e-01,0.000e+00
9.981e-01,0.000e+00
