transmittance,probability_density
2.752e-01,6.245e-07
2.788e-01,6.917e-07
2.824e-01,7.656e-07
2.861e-01,8.467e-07
2.897e-01,9.356e-07
2.933e-01,1.033e-06
2.970e-01,1.140e-06
3.006e-01,1.256e-06
3.042e-01,1.384e-06
3.079e-01,1.524e-06
3.115e-01,1.676e-06
3.151e-01,1.843e-06
3.188e-01,2.025e-06
3.224e-01,2.223e-06
3.260e-01,2.440e-06
3.297e-01,2.676e-06
3.333e-01,2.932e-06
3.369e-01,3.212e-06
3.406e-01,3.516e-06
3.442e-01,3.847e-06
3.478e-01,4.207e-06
3.515e-01,4.599e-06
3.551e-01,5.024e-06
3.587e-01,5.485e-06
3.624e-01,5.987e-06
3.660e-01,6.530e-06
3.696e-01,7.120e-06
3.733e-01,7.760e-06
3.769e-01,8.453e-06
3.805e-01,9.205e-06
3.842e-01,1.002e-05
3.878e-01,1.090e-05
3.914e-01,1.185e-05
3.951e-01,1.289e-05
3.987e-01,1.400e-05
4.023e-01,1.521e-05
4.060e-01,1.652e-05
4.096e-01,1.793e-05
4.132e-01,1.946e-05
4.169e-01,2.111e-05
4.205e-01,2.289e-05
4.241e-01,2.481e-05
4.278e-01,2.689e-05
4.314e-01,2.913e-05
4.350e-01,3.155e-05
4.387e-01,3.415e-05
4.423e-01,3.697e-05
4.459e-01,4.000e-05
4.496e-01,4.328e-05
4.532e-01,4.680e-05
4.568e-01,5.060e-05
4.605e-01,5.470e-05
4.641e-01,5.911e-05
4.677e-01,6.387e-05
4.714e-01,6.899e-05
4.750e-01,7.450e-05
4.786e-01,8.044e-05
4.823e-01,8.683e-05
4.859e-01,9.371e-05
4.895e-01,1.011e-04
4.932e-01,1.091e-04
4.968e-01,1.176e-04
5.004e-01,1.269e-04
5.041e-01,1.368e-04
5.077e-01,1.475e-04
5.113e-01,1.589e-04
5.150e-01,1.713e-04
5.186e-01,1.845e-04
5.222e-01,1.988e-04
5.259e-01,2.141e-04
5.295e-01,2.306e-04
5.331e-01,2.484e-04
5.368e-01,2.674e-04
5.404e-01,2.879e-04
5.440e-01,3.099e-04
5.477e-01,3.335e-04
5.513e-01,3.590e-04
5.549e-01,3.863e-04
5.586e-01,4.156e-04
5.622e-01,4.471e-04
5.658e-01,4.810e-04
5.695e-01,5.174e-04
5.731e-01,5.565e-04
5.767e-01,5.986e-04
5.804e-01,6.437e-04
5.840e-01,6.922e-04
5.876e-01,7.444e-04
5.913e-01,8.004e-04
5.949e-01,8.606e-04
5.985e-01,9.252e-04
6.022e-01,9.947e-04
6.058e-01,1.069e-03
6.094e-01,1.150e-03
6.131e-01,1.236e-03
6.167e-01,1.329e-03
6.203e-01,1.428e-03
6.240e-01,1.535e-03
6.276e-01,1.650e-03
6.312e-01,1.774e-03
6.349e-01,1.907e-03
6.385e-01,2.050e-03
6.421e-01,2.204e-03
6.458e-01,2.369e-03
6.494e-01,2.547e-03
6.530e-01,2.738e-03
6.567e-01,2.944e-03
6.603e-01,3.166e-03
6.639e-01,3.404e-03
6.676e-01,3.660e-03
6.712e-01,3.936e-03
6.748e-01,4.233e-03
6.785e-01,4.553e-03
6.821e-01,4.898e-03
6.857e-01,5.269e-03
6.894e-01,5.668e-03
6.930e-01,6.099e-03
6.966e-01,6.563e-03
7.003e-01,7.063e-03
7.039e-01,7.603e-03
7.075e-01,8.184e-03
7.112e-01,8.812e-03
7.148e-01,9.489e-03
7.184e-01,1.022e-02
7.221e-01,1.101e-02
7.257e-01,1.186e-02
7.293e-01,1.278e-02
7.330e-01,1.377e-02
7.366e-01,1.485e-02
7.402e-01,1.601e-02
7.439e-01,1.726e-02
7.475e-01,1.862e-02
7.511e-01,2.009e-02
7.548e-01,2.168e-02
7.584e-01,2.341e-02
7.620e-01,2.528e-02
7.657e-01,2.730e-02
7.693e-01,2.950e-02
7.729e-01,3.188e-02
7.766e-01,3.447e-02
7.802e-01,3.727e-02
7.838e-01,4.033e-02
7.875e-01,4.364e-02
7.911e-01,4.725e-02
7.947e-01,5.118e-02
7.984e-01,5.546e-02
8.020e-01,6.012e-02
8.056e-01,6.520e-02
8.093e-01,7.074e-02
8.129e-01,7.679e-02
8.165e-01,8.341e-02
8.202e-01,9.064e-02
8.238e-01,9.855e-02
8.274e-01,1.072e-01
8.311e-01,1.167e-01
8.347e-01,1.271e-01
8.383e-01,1.386e-01
8.420e-01,1.512e-01
8.456e-01,1.650e-01
8.492e-01,1.803e-01
8.529e-01,1.971e-01
8.565e-01,2.157e-01
8.601e-01,2.362e-01
8.638e-01,2.589e-01
8.674e-01,2.841e-01
8.710e-01,3.121e-01
8.747e-01,3.431e-01
8.783e-01,3.778e-01
8.819e-01,4.164e-01
8.856e-01,4.596e-01
8.892e-01,5.079e-01
8.928e-01,5.621e-01
8.965e-01,6.232e-01
9.001e-01,6.919e-01
9.037e-01,7.697e-01
9.074e-01,8.578e-01
9.110e-01,9.580e-01
9.146e-01,1.072e+00
9.183e-01,1.203e+00
9.219e-01,1.353e+00
9.255e-01,1.527e+00
9.292e-01,1.728e+00
9.328e-01,1.962e+00
9.364e-01,2.236e+00
9.401e-01,2.560e+00
9.437e-01,2.945e+00
9.473e-01,3.406e+00
9.510e-01,3.964e+00
9.546e-01,4.647e+00
9.582e-01,5.494e+00
9.619e-01,6.563e+00
9.655e-01,7.939e+00
9.691e-01,9.757e+00
9.728e-01,1.224e+01
9.764e-01,1.581e+01
9.800e-01,2.133e+01
9.837e-01,3.102e+01
9.873e-01,5.360e+01
9.909e-01,0.000e+00
9.946e-01,0.000e+00
9.982e-01,0.000e+00
