transmittance,probability_density
1.869e-01,2.895e-07
1.910e-01,3.338e-07
1.951e-01,3.840e-07
1.992e-01,4.409e-07
2.032e-01,5.050e-07
2.073e-01,5.774e-07
2.114e-01,6.589e-07
2.155e-01,7.505e-07
2.196e-01,8.534e-07
2.236e-01,9.687e-07
2.277e-01,1.098e-06
2.318e-01,1.242e-06
2.359e-01,1.403e-06
2.399e-01,1.583e-06
2.440e-01,1.783e-06
2.481e-01,2.005e-06
2.522e-01,2.253e-06
2.562e-01,2.527e-06
2.603e-01,2.832e-06
2.644e-01,3.169e-06
2.685e-01,3.542e-06
2.725e-01,3.955e-06
2.766e-01,4.411e-06
2.807e-01,4.914e-06
2.848e-01,5.469e-06
2.888e-01,6.081e-06
2.929e-01,6.754e-06
2.970e-01,7.495e-06
3.011e-01,8.309e-06
3.051e-01,9.204e-06
3.092e-01,1.019e-05
3.133e-01,1.126e-05
3.174e-01,1.244e-05
3.214e-01,1.374e-05
3.255e-01,1.515e-05
3.296e-01,1.670e-05
3.337e-01,1.839e-05
3.377e-01,2.024e-05
3.418e-01,2.227e-05
3.459e-01,2.447e-05
3.500e-01,2.688e-05
3.540e-01,2.950e-05
3.581e-01,3.236e-05
3.622e-01,3.548e-05
3.663e-01,3.887e-05
3.703e-01,4.256e-05
3.744e-01,4.657e-05
3.785e-01,5.094e-05
3.826e-01,5.568e-05
3.866e-01,6.084e-05
3.907e-01,6.644e-05
3.948e-01,7.251e-05
3.989e-01,7.910e-05
4.029e-01,8.625e-05
4.070e-01,9.401e-05
4.111e-01,1.024e-04
4.152e-01,1.115e-04
4.192e-01,1.214e-04
4.233e-01,1.321e-04
4.274e-01,1.436e-04
4.315e-01,1.561e-04
4.355e-01,1.697e-04
4.396e-01,1.843e-04
4.437e-01,2.001e-04
4.478e-01,2.172e-04
4.519e-01,2.357e-04
4.559e-01,2.557e-04
4.600e-01,2.772e-04
4.641e-01,3.005e-04
4.682e-01,3.257e-04
4.722e-01,3.528e-04
4.763e-01,3.821e-04
4.804e-01,4.137e-04
4.845e-01,4.478e-04
4.885e-01,4.846e-04
4.926e-01,5.242e-04
4.967e-01,5.670e-04
5.008e-01,6.130e-04
5.048e-01,6.627e-04
5.089e-01,7.162e-04
5.130e-01,7.739e-04
5.171e-01,8.360e-04
5.211e-01,9.029e-04
5.252e-01,9.749e-04
5.293e-01,1.053e-03
5.334e-01,1.136e-03
5.374e-01,1.226e-03
5.415e-01,1.323e-03
5.456e-01,1.427e-03
5.497e-01,1.539e-03
5.537e-01,1.660e-03
5.578e-01,1.790e-03
5.619e-01,1.930e-03
5.660e-01,2.081e-03
5.700e-01,2.243e-03
5.741e-01,2.417e-03
5.782e-01,2.605e-03
5.823e-01,2.806e-03
5.863e-01,3.024e-03
5.904e-01,3.257e-03
5.945e-01,3.508e-03
5.986e-01,3.779e-03
6.026e-01,4.070e-03
6.067e-01,4.383e-03
6.108e-01,4.720e-03
6.149e-01,5.082e-03
6.189e-01,5.472e-03
6.230e-01,5.891e-03
6.271e-01,6.343e-03
6.312e-01,6.829e-03
6.352e-01,7.352e-03
6.393e-01,7.914e-03
6.434e-01,8.520e-03
6.475e-01,9.172e-03
6.515e-01,9.875e-03
6.556e-01,1.063e-02
6.597e-01,1.144e-02
6.638e-01,1.232e-02
6.679e-01,1.327e-02
6.719e-01,1.428e-02
6.760e-01,1.538e-02
6.801e-01,1.656e-02
6.842e-01,1.783e-02
6.882e-01,1.921e-02
6.923e-01,2.069e-02
6.964e-01,2.228e-02
7.005e-01,2.400e-02
7.045e-01,2.586e-02
7.086e-01,2.786e-02
7.127e-01,3.003e-02
7.168e-01,3.236e-02
7.208e-01,3.489e-02
7.249e-01,3.761e-02
7.290e-01,4.056e-02
7.331e-01,4.374e-02
7.371e-01,4.718e-02
7.412e-01,5.091e-02
7.453e-01,5.494e-02
7.494e-01,5.930e-02
7.534e-01,6.402e-02
7.575e-01,6.914e-02
7.616e-01,7.469e-02
7.657e-01,8.070e-02
7.697e-01,8.723e-02
7.738e-01,9.431e-02
7.779e-01,1.020e-01
7.820e-01,1.104e-01
7.860e-01,1.195e-01
7.901e-01,1.293e-01
7.942e-01,1.401e-01
7.983e-01,1.518e-01
8.023e-01,1.646e-01
8.064e-01,1.785e-01
8.105e-01,1.937e-01
8.146e-01,2.104e-01
8.186e-01,2.285e-01
8.227e-01,2.484e-01
8.268e-01,2.702e-01
8.309e-01,2.941e-01
8.349e-01,3.203e-01
8.390e-01,3.491e-01
8.431e-01,3.807e-01
8.472e-01,4.156e-01
8.512e-01,4.540e-01
8.553e-01,4.965e-01
8.594e-01,5.434e-01
8.635e-01,5.954e-01
8.675e-01,6.531e-01
8.716e-01,7.171e-01
8.757e-01,7.884e-01
8.798e-01,8.680e-01
8.838e-01,9.569e-01
8.879e-01,1.056e+00
8.920e-01,1.168e+00
8.961e-01,1.294e+00
9.002e-01,1.437e+00
9.042e-01,1.598e+00
9.083e-01,1.781e+00
9.124e-01,1.990e+00
9.165e-01,2.230e+00
9.205e-01,2.506e+00
9.246e-01,2.826e+00
9.287e-01,3.198e+00
9.328e-01,3.636e+00
9.368e-01,4.152e+00
9.409e-01,4.769e+00
9.450e-01,5.513e+00
9.491e-01,6.423e+00
9.531e-01,7.553e+00
9.572e-01,8.987e+00
9.613e-01,1.085e+01
9.654e-01,1.338e+01
9.694e-01,1.697e+01
9.735e-01,2.255e+01
9.776e-01,3.275e+01
9.817e-01,6.299e+01
9.857e-01,0.000e+00
9.898e-01,0.000e+00
9.939e-01,0.000e+00
9.980e-01,0.000e+00
