transmittance,probability_density
1.495e-03,1.573e+00
4.486e-03,2.796e+00
7.477e-03,3.585e+00
1.047e-02,4.173e+00
1.346e-02,4.633e+00
1.645e-02,5.001e+00
1.944e-02,5.297e+00
2.243e-02,5.537e+00
2.542e-02,5.729e+00
2.841e-02,5.882e+00
3.140e-02,6.001e+00
3.440e-02,6.091e+00
3.739e-02,6.155e+00
4.038e-02,6.198e+00
4.337e-02,6.221e+00
4.636e-02,6.227e+00
4.935e-02,6.218e+00
5.234e-02,6.195e+00
5.533e-02,6.161e+00
5.832e-02,6.116e+00
6.131e-02,6.062e+00
6.430e-02,6.000e+00
6.730e-02,5.930e+00
7.029e-02,5.855e+00
7.328e-02,5.773e+00
7.627e-02,5.687e+00
7.926e-02,5.597e+00
8.225e-02,5.503e+00
8.524e-02,5.407e+00
8.823e-02,5.307e+00
9.122e-02,5.206e+00
9.421e-02,5.102e+00
9.720e-02,4.998e+00
1.002e-01,4.892e+00
1.032e-01,4.785e+00
1.062e-01,4.678e+00
1.092e-01,4.571e+00
1.122e-01,4.464e+00
1.151e-01,4.357e+00
1.181e-01,4.251e+00
1.211e-01,4.145e+00
1.241e-01,4.040e+00
1.271e-01,3.935e+00
1.301e-01,3.832e+00
1.331e-01,3.730e+00
1.361e-01,3.629e+00
1.391e-01,3.529e+00
1.421e-01,3.431e+00
1.451e-01,3.334e+00
1.480e-01,3.239e+00
1.510e-01,3.145e+00
1.540e-01,3.053e+00
1.570e-01,2.962e+00
1.600e-01,2.873e+00
1.630e-01,2.786e+00
1.660e-01,2.701e+00
1.690e-01,2.617e+00
1.720e-01,2.535e+00
1.750e-01,2.455e+00
1.780e-01,2.377e+00
1.809e-01,2.301e+00
1.839e-01,2.226e+00
1.869e-01,2.153e+00
1.899e-01,2.082e+00
1.929e-01,2.012e+00
1.959e-01,1.945e+00
1.989e-01,1.879e+00
2.019e-01,1.815e+00
2.049e-01,1.752e+00
2.079e-01,1.691e+00
2.109e-01,1.632e+00
2.138e-01,1.575e+00
2.168e-01,1.519e+00
2.198e-01,1.464e+00
2.228e-01,1.412e+00
2.258e-01,1.360e+00
2.288e-01,1.311e+00
2.318e-01,1.262e+00
2.348e-01,1.215e+00
2.378e-01,1.170e+00
2.408e-01,1.126e+00
2.438e-01,1.083e+00
2.467e-01,1.042e+00
2.497e-01,1.002e+00
2.527e-01,9.635e-01
2.557e-01,9.261e-01
2.587e-01,8.899e-01
2.617e-01,8.549e-01
2.647e-01,8.210e-01
2.677e-01,7.883e-01
2.707e-01,7.567e-01
2.737e-01,7.261e-01
2.767e-01,6.966e-01
2.796e-01,6.682e-01
2.826e-01,6.407e-01
2.856e-01,6.142e-01
2.886e-01,5.886e-01
2.916e-01,5.640e-01
2.946e-01,5.402e-01
2.976e-01,5.173e-01
3.006e-01,4.953e-01
3.036e-01,4.740e-01
3.066e-01,4.536e-01
3.096e-01,4.339e-01
3.125e-01,4.150e-01
3.155e-01,3.967e-01
3.185e-01,3.792e-01
3.215e-01,3.624e-01
3.245e-01,3.462e-01
3.275e-01,3.306e-01
3.305e-01,3.157e-01
3.335e-01,3.013e-01
3.365e-01,2.875e-01
3.395e-01,2.743e-01
3.425e-01,2.616e-01
3.454e-01,2.495e-01
3.484e-01,2.378e-01
3.514e-01,2.266e-01
3.544e-01,2.159e-01
3.574e-01,2.056e-01
3.604e-01,1.957e-01
3.634e-01,1.863e-01
3.664e-01,1.773e-01
3.694e-01,1.686e-01
3.724e-01,1.604e-01
3.754e-01,1.525e-01
3.783e-01,1.449e-01
3.813e-01,1.377e-01
3.843e-01,1.308e-01
3.873e-01,1.242e-01
3.903e-01,1.179e-01
3.933e-01,1.119e-01
3.963e-01,1.061e-01
3.993e-01,1.007e-01
4.023e-01,9.544e-02
4.053e-01,9.045e-02
4.083e-01,8.570e-02
4.112e-01,8.118e-02
4.142e-01,7.686e-02
4.172e-01,7.276e-02
4.202e-01,6.884e-02
4.232e-01,6.512e-02
4.262e-01,6.158e-02
4.292e-01,5.821e-02
4.322e-01,5.501e-02
4.352e-01,5.196e-02
4.382e-01,4.907e-02
4.412e-01,4.632e-02
4.441e-01,4.371e-02
4.471e-01,4.123e-02
4.501e-01,3.888e-02
4.531e-01,3.665e-02
4.561e-01,3.453e-02
4.591e-01,3.252e-02
4.621e-01,3.062e-02
4.651e-01,2.882e-02
4.681e-01,2.712e-02
4.711e-01,2.550e-02
4.741e-01,2.398e-02
4.770e-01,2.253e-02
4.800e-01,2.117e-02
4.830e-01,1.987e-02
4.860e-01,1.865e-02
4.890e-01,1.750e-02
4.920e-01,1.641e-02
4.950e-01,1.539e-02
4.980e-01,1.442e-02
5.010e-01,1.350e-02
5.040e-01,1.264e-02
5.070e-01,1.183e-02
5.099e-01,1.107e-02
5.129e-01,1.035e-02
5.159e-01,9.672e-03
5.189e-01,9.035e-03
5.219e-01,8.436e-03
5.249e-01,7.873e-03
5.279e-01,7.344e-03
5.309e-01,6.847e-03
5.339e-01,6.381e-03
5.369e-01,5.944e-03
5.399e-01,5.534e-03
5.428e-01,5.150e-03
5.458e-01,4.789e-03
5.488e-01,4.452e-03
5.518e-01,4.137e-03
5.548e-01,3.841e-03
5.578e-01,3.565e-03
5.608e-01,3.307e-03
5.638e-01,3.066e-03
5.668e-01,2.841e-03
5.698e-01,2.631e-03
5.728e-01,2.435e-03
5.757e-01,2.252e-03
5.787e-01,2.082e-03
5.817e-01,1.924e-03
5.847e-01,1.776e-03
5.877e-01,1.639e-03
5.907e-01,1.512e-03
5.937e-01,1.393e-03
5.967e-01,1.283e-03
