transmittance,probability_density
6.600e-04,1.028e+01
1.980e-03,1.482e+01
3.300e-03,1.712e+01
4.620e-03,1.851e+01
5.940e-03,1.939e+01
7.260e-03,1.992e+01
8.580e-03,2.021e+01
9.900e-03,2.032e+01
1.122e-02,2.029e+01
1.254e-02,2.015e+01
1.386e-02,1.993e+01
1.518e-02,1.964e+01
1.650e-02,1.930e+01
1.782e-02,1.892e+01
1.914e-02,1.850e+01
2.046e-02,1.807e+01
2.178e-02,1.761e+01
2.310e-02,1.714e+01
2.442e-02,1.666e+01
2.574e-02,1.617e+01
2.706e-02,1.569e+01
2.838e-02,1.520e+01
2.970e-02,1.472e+01
3.102e-02,1.423e+01
3.234e-02,1.376e+01
3.366e-02,1.329e+01
3.498e-02,1.283e+01
3.630e-02,1.237e+01
3.762e-02,1.193e+01
3.894e-02,1.150e+01
4.026e-02,1.107e+01
4.158e-02,1.066e+01
4.290e-02,1.026e+01
4.422e-02,9.867e+00
4.554e-02,9.486e+00
4.686e-02,9.117e+00
4.818e-02,8.759e+00
4.950e-02,8.412e+00
5.082e-02,8.077e+00
5.214e-02,7.752e+00
5.346e-02,7.437e+00
5.478e-02,7.134e+00
5.610e-02,6.840e+00
5.742e-02,6.557e+00
5.874e-02,6.284e+00
6.006e-02,6.021e+00
6.138e-02,5.768e+00
6.270e-02,5.523e+00
6.402e-02,5.288e+00
6.534e-02,5.062e+00
6.666e-02,4.844e+00
6.798e-02,4.634e+00
6.930e-02,4.433e+00
7.062e-02,4.239e+00
7.194e-02,4.054e+00
7.326e-02,3.875e+00
7.458e-02,3.704e+00
7.590e-02,3.539e+00
7.722e-02,3.381e+00
7.854e-02,3.230e+00
7.986e-02,3.085e+00
8.118e-02,2.946e+00
8.250e-02,2.812e+00
8.382e-02,2.685e+00
8.514e-02,2.562e+00
8.646e-02,2.445e+00
8.778e-02,2.333e+00
8.910e-02,2.225e+00
9.042e-02,2.122e+00
9.174e-02,2.024e+00
9.306e-02,1.930e+00
9.438e-02,1.840e+00
9.570e-02,1.754e+00
9.702e-02,1.671e+00
9.834e-02,1.593e+00
9.966e-02,1.517e+00
1.010e-01,1.446e+00
1.023e-01,1.377e+00
1.036e-01,1.311e+00
1.049e-01,1.249e+00
1.063e-01,1.189e+00
1.076e-01,1.132e+00
1.089e-01,1.077e+00
1.102e-01,1.025e+00
1.115e-01,9.755e-01
1.129e-01,9.282e-01
1.142e-01,8.830e-01
1.155e-01,8.399e-01
1.168e-01,7.988e-01
1.181e-01,7.596e-01
1.195e-01,7.223e-01
1.208e-01,6.867e-01
1.221e-01,6.527e-01
1.234e-01,6.204e-01
1.247e-01,5.896e-01
1.261e-01,5.603e-01
1.274e-01,5.323e-01
1.287e-01,5.057e-01
1.300e-01,4.803e-01
1.313e-01,4.562e-01
1.327e-01,4.332e-01
1.340e-01,4.114e-01
1.353e-01,3.906e-01
1.366e-01,3.708e-01
1.379e-01,3.519e-01
1.393e-01,3.340e-01
1.406e-01,3.170e-01
1.419e-01,3.007e-01
1.432e-01,2.853e-01
1.445e-01,2.707e-01
1.459e-01,2.567e-01
1.472e-01,2.435e-01
1.485e-01,2.309e-01
1.498e-01,2.189e-01
1.511e-01,2.075e-01
1.525e-01,1.967e-01
1.538e-01,1.865e-01
1.551e-01,1.767e-01
1.564e-01,1.675e-01
1.577e-01,1.587e-01
1.591e-01,1.503e-01
1.604e-01,1.424e-01
1.617e-01,1.349e-01
1.630e-01,1.278e-01
1.643e-01,1.210e-01
1.657e-01,1.145e-01
1.670e-01,1.084e-01
1.683e-01,1.027e-01
1.696e-01,9.717e-02
1.709e-01,9.196e-02
1.723e-01,8.703e-02
1.736e-01,8.234e-02
1.749e-01,7.790e-02
1.762e-01,7.370e-02
1.775e-01,6.971e-02
1.789e-01,6.593e-02
1.802e-01,6.234e-02
1.815e-01,5.895e-02
1.828e-01,5.573e-02
1.841e-01,5.269e-02
1.855e-01,4.980e-02
1.868e-01,4.707e-02
1.881e-01,4.448e-02
1.894e-01,4.203e-02
1.907e-01,3.971e-02
1.921e-01,3.751e-02
1.934e-01,3.543e-02
1.947e-01,3.346e-02
1.960e-01,3.160e-02
1.973e-01,2.984e-02
1.987e-01,2.817e-02
2.000e-01,2.660e-02
2.013e-01,2.510e-02
2.026e-01,2.369e-02
2.039e-01,2.236e-02
2.053e-01,2.110e-02
2.066e-01,1.991e-02
2.079e-01,1.878e-02
2.092e-01,1.771e-02
2.105e-01,1.671e-02
2.119e-01,1.575e-02
2.132e-01,1.486e-02
2.145e-01,1.401e-02
2.158e-01,1.320e-02
2.171e-01,1.245e-02
2.185e-01,1.173e-02
2.198e-01,1.105e-02
2.211e-01,1.042e-02
2.224e-01,9.813e-03
2.237e-01,9.245e-03
2.251e-01,8.708e-03
2.264e-01,8.201e-03
2.277e-01,7.723e-03
2.290e-01,7.272e-03
2.303e-01,6.847e-03
2.317e-01,6.445e-03
2.330e-01,6.067e-03
2.343e-01,5.710e-03
2.356e-01,5.373e-03
2.369e-01,5.055e-03
2.383e-01,4.756e-03
2.396e-01,4.474e-03
2.409e-01,4.208e-03
2.422e-01,3.958e-03
2.435e-01,3.722e-03
2.449e-01,3.499e-03
2.462e-01,3.290e-03
2.475e-01,3.092e-03
2.488e-01,2.906e-03
2.501e-01,2.731e-03
2.515e-01,2.567e-03
2.528e-01,2.411e-03
2.541e-01,2.265e-03
2.554e-01,2.128e-03
2.567e-01,1.998e-03
2.581e-01,1.877e-03
2.594e-01,1.762e-03
2.607e-01,1.654e-03
2.620e-01,1.553e-03
2.633e-01,1.458e-03
