transmittance,probability_density
1.971e-03,4.227e-01
5.914e-03,9.114e-01
9.857e-03,1.285e+00
1.380e-02,1.596e+00
1.774e-02,1.864e+00
2.169e-02,2.099e+00
2.563e-02,2.307e+00
2.957e-02,2.491e+00
3.352e-02,2.655e+00
3.746e-02,2.801e+00
4.140e-02,2.932e+00
4.534e-02,3.047e+00
4.929e-02,3.150e+00
5.323e-02,3.240e+00
5.717e-02,3.320e+00
6.112e-02,3.390e+00
6.506e-02,3.450e+00
6.900e-02,3.501e+00
7.294e-02,3.544e+00
7.689e-02,3.580e+00
8.083e-02,3.609e+00
8.477e-02,3.632e+00
8.872e-02,3.648e+00
9.266e-02,3.659e+00
9.660e-02,3.665e+00
1.005e-01,3.666e+00
1.045e-01,3.662e+00
1.084e-01,3.654e+00
1.124e-01,3.642e+00
1.163e-01,3.626e+00
1.203e-01,3.607e+00
1.242e-01,3.585e+00
1.281e-01,3.560e+00
1.321e-01,3.532e+00
1.360e-01,3.502e+00
1.400e-01,3.469e+00
1.439e-01,3.434e+00
1.479e-01,3.398e+00
1.518e-01,3.359e+00
1.557e-01,3.319e+00
1.597e-01,3.277e+00
1.636e-01,3.234e+00
1.676e-01,3.190e+00
1.715e-01,3.144e+00
1.755e-01,3.098e+00
1.794e-01,3.050e+00
1.833e-01,3.002e+00
1.873e-01,2.953e+00
1.912e-01,2.904e+00
1.952e-01,2.854e+00
1.991e-01,2.804e+00
2.031e-01,2.753e+00
2.070e-01,2.702e+00
2.109e-01,2.651e+00
2.149e-01,2.600e+00
2.188e-01,2.549e+00
2.228e-01,2.498e+00
2.267e-01,2.446e+00
2.307e-01,2.395e+00
2.346e-01,2.344e+00
2.385e-01,2.294e+00
2.425e-01,2.243e+00
2.464e-01,2.193e+00
2.504e-01,2.143e+00
2.543e-01,2.094e+00
2.583e-01,2.045e+00
2.622e-01,1.996e+00
2.661e-01,1.948e+00
2.701e-01,1.901e+00
2.740e-01,1.854e+00
2.780e-01,1.807e+00
2.819e-01,1.761e+00
2.859e-01,1.716e+00
2.898e-01,1.671e+00
2.937e-01,1.627e+00
2.977e-01,1.583e+00
3.016e-01,1.540e+00
3.056e-01,1.498e+00
3.095e-01,1.457e+00
3.135e-01,1.416e+00
3.174e-01,1.376e+00
3.214e-01,1.336e+00
3.253e-01,1.298e+00
3.292e-01,1.259e+00
3.332e-01,1.222e+00
3.371e-01,1.185e+00
3.411e-01,1.150e+00
3.450e-01,1.114e+00
3.490e-01,1.080e+00
3.529e-01,1.046e+00
3.568e-01,1.013e+00
3.608e-01,9.808e-01
3.647e-01,9.492e-01
3.687e-01,9.183e-01
3.726e-01,8.881e-01
3.766e-01,8.586e-01
3.805e-01,8.298e-01
3.844e-01,8.017e-01
3.884e-01,7.743e-01
3.923e-01,7.475e-01
3.963e-01,7.214e-01
4.002e-01,6.960e-01
4.042e-01,6.713e-01
4.081e-01,6.472e-01
4.120e-01,6.237e-01
4.160e-01,6.009e-01
4.199e-01,5.787e-01
4.239e-01,5.571e-01
4.278e-01,5.361e-01
4.318e-01,5.157e-01
4.357e-01,4.959e-01
4.396e-01,4.767e-01
4.436e-01,4.581e-01
4.475e-01,4.400e-01
4.515e-01,4.224e-01
4.554e-01,4.054e-01
4.594e-01,3.890e-01
4.633e-01,3.730e-01
4.672e-01,3.576e-01
4.712e-01,3.426e-01
4.751e-01,3.282e-01
4.791e-01,3.142e-01
4.830e-01,3.007e-01
4.870e-01,2.876e-01
4.909e-01,2.750e-01
4.948e-01,2.629e-01
4.988e-01,2.511e-01
5.027e-01,2.398e-01
5.067e-01,2.289e-01
5.106e-01,2.183e-01
5.146e-01,2.082e-01
5.185e-01,1.984e-01
5.224e-01,1.891e-01
5.264e-01,1.800e-01
5.303e-01,1.713e-01
5.343e-01,1.630e-01
5.382e-01,1.549e-01
5.422e-01,1.472e-01
5.461e-01,1.398e-01
5.500e-01,1.327e-01
5.540e-01,1.259e-01
5.579e-01,1.194e-01
5.619e-01,1.132e-01
5.658e-01,1.072e-01
5.698e-01,1.015e-01
5.737e-01,9.600e-02
5.776e-01,9.076e-02
5.816e-01,8.576e-02
5.855e-01,8.099e-02
5.895e-01,7.643e-02
5.934e-01,7.209e-02
5.974e-01,6.795e-02
6.013e-01,6.400e-02
6.052e-01,6.024e-02
6.092e-01,5.666e-02
6.131e-01,5.326e-02
6.171e-01,5.003e-02
6.210e-01,4.696e-02
6.250e-01,4.404e-02
6.289e-01,4.128e-02
6.328e-01,3.866e-02
6.368e-01,3.618e-02
6.407e-01,3.382e-02
6.447e-01,3.160e-02
6.486e-01,2.950e-02
6.526e-01,2.751e-02
6.565e-01,2.564e-02
6.604e-01,2.387e-02
6.644e-01,2.220e-02
6.683e-01,2.063e-02
6.723e-01,1.916e-02
6.762e-01,1.777e-02
6.802e-01,1.646e-02
6.841e-01,1.524e-02
6.880e-01,1.409e-02
6.920e-01,1.302e-02
6.959e-01,1.201e-02
6.999e-01,1.107e-02
7.038e-01,1.019e-02
7.078e-01,9.370e-03
7.117e-01,8.605e-03
7.156e-01,7.893e-03
7.196e-01,7.230e-03
7.235e-01,6.614e-03
7.275e-01,6.043e-03
7.314e-01,5.513e-03
7.354e-01,5.022e-03
7.393e-01,4.569e-03
7.432e-01,4.150e-03
7.472e-01,3.763e-03
7.511e-01,3.407e-03
7.551e-01,3.080e-03
7.590e-01,2.779e-03
7.630e-01,2.503e-03
7.669e-01,2.250e-03
7.708e-01,2.019e-03
7.748e-01,1.809e-03
7.787e-01,1.616e-03
7.827e-01,1.442e-03
7.866e-01,1.283e-03
