transmittance,probability_density
2.500e-03,1.068e-03
7.500e-03,6.375e-03
1.250e-02,1.456e-02
1.750e-02,2.500e-02
2.250e-02,3.735e-02
2.750e-02,5.137e-02
3.250e-02,6.687e-02
3.750e-02,8.371e-02
4.250e-02,1.017e-01
4.750e-02,1.209e-01
5.250e-02,1.410e-01
5.750e-02,1.621e-01
6.250e-02,1.840e-01
6.750e-02,2.066e-01
7.250e-02,2.300e-01
7.750e-02,2.539e-01
8.250e-02,2.785e-01
8.750e-02,3.036e-01
9.250e-02,3.292e-01
9.750e-02,3.552e-01
1.025e-01,3.817e-01
1.075e-01,4.084e-01
1.125e-01,4.355e-01
1.175e-01,4.628e-01
1.225e-01,4.904e-01
1.275e-01,5.181e-01
1.325e-01,5.461e-01
1.375e-01,5.741e-01
1.425e-01,6.023e-01
1.475e-01,6.305e-01
1.525e-01,6.588e-01
1.575e-01,6.871e-01
1.625e-01,7.154e-01
1.675e-01,7.437e-01
1.725e-01,7.719e-01
1.775e-01,8.000e-01
1.825e-01,8.280e-01
1.875e-01,8.558e-01
1.925e-01,8.836e-01
1.975e-01,9.111e-01
2.025e-01,9.385e-01
2.075e-01,9.656e-01
2.125e-01,9.926e-01
2.175e-01,1.019e+00
2.225e-01,1.046e+00
2.275e-01,1.072e+00
2.325e-01,1.098e+00
2.375e-01,1.123e+00
2.425e-01,1.148e+00
2.475e-01,1.173e+00
2.525e-01,1.198e+00
2.575e-01,1.222e+00
2.625e-01,1.246e+00
2.675e-01,1.269e+00
2.725e-01,1.292e+00
2.775e-01,1.314e+00
2.825e-01,1.336e+00
2.875e-01,1.358e+00
2.925e-01,1.379e+00
2.975e-01,1.400e+00
3.025e-01,1.420e+00
3.075e-01,1.440e+00
3.125e-01,1.459e+00
3.175e-01,1.478e+00
3.225e-01,1.496e+00
3.275e-01,1.514e+00
3.325e-01,1.531e+00
3.375e-01,1.548e+00
3.425e-01,1.564e+00
3.475e-01,1.580e+00
3.525e-01,1.595e+00
3.575e-01,1.609e+00
3.625e-01,1.623e+00
3.675e-01,1.637e+00
3.725e-01,1.649e+00
3.775e-01,1.662e+00
3.825e-01,1.673e+00
3.875e-01,1.684e+00
3.925e-01,1.695e+00
3.975e-01,1.704e+00
4.025e-01,1.714e+00
4.075e-01,1.722e+00
4.125e-01,1.730e+00
4.175e-01,1.738e+00
4.225e-01,1.745e+00
4.275e-01,1.751e+00
4.325e-01,1.756e+00
4.375e-01,1.761e+00
4.425e-01,1.766e+00
4.475e-01,1.769e+00
4.525e-01,1.773e+00
4.575e-01,1.775e+00
4.625e-01,1.777e+00
4.675e-01,1.778e+00
4.725e-01,1.779e+00
4.775e-01,1.779e+00
4.825e-01,1.778e+00
4.875e-01,1.777e+00
4.925e-01,1.776e+00
4.975e-01,1.773e+00
5.025e-01,1.770e+00
5.075e-01,1.767e+00
5.125e-01,1.762e+00
5.175e-01,1.758e+00
5.225e-01,1.752e+00
5.275e-01,1.746e+00
5.325e-01,1.740e+00
5.375e-01,1.733e+00
5.425e-01,1.725e+00
5.475e-01,1.717e+00
5.525e-01,1.708e+00
5.575e-01,1.698e+00
5.625e-01,1.688e+00
5.675e-01,1.678e+00
5.725e-01,1.667e+00
5.775e-01,1.655e+00
5.825e-01,1.643e+00
5.875e-01,1.630e+00
5.925e-01,1.617e+00
5.975e-01,1.603e+00
6.025e-01,1.589e+00
6.075e-01,1.574e+00
6.125e-01,1.559e+00
6.175e-01,1.543e+00
6.225e-01,1.527e+00
6.275e-01,1.510e+00
6.325e-01,1.493e+00
6.375e-01,1.476e+00
6.425e-01,1.458e+00
6.475e-01,1.439e+00
6.525e-01,1.421e+00
6.575e-01,1.401e+00
6.625e-01,1.382e+00
6.675e-01,1.362e+00
6.725e-01,1.341e+00
6.775e-01,1.320e+00
6.825e-01,1.299e+00
6.875e-01,1.278e+00
6.925e-01,1.256e+00
6.975e-01,1.234e+00
7.025e-01,1.211e+00
7.075e-01,1.188e+00
7.125e-01,1.165e+00
7.175e-01,1.142e+00
7.225e-01,1.119e+00
7.275e-01,1.095e+00
7.325e-01,1.071e+00
7.375e-01,1.046e+00
7.425e-01,1.022e+00
7.475e-01,9.974e-01
7.525e-01,9.726e-01
7.575e-01,9.477e-01
7.625e-01,9.226e-01
7.675e-01,8.975e-01
7.725e-01,8.722e-01
7.775e-01,8.468e-01
7.825e-01,8.214e-01
7.875e-01,7.959e-01
7.925e-01,7.704e-01
7.975e-01,7.448e-01
8.025e-01,7.193e-01
8.075e-01,6.938e-01
8.125e-01,6.684e-01
8.175e-01,6.430e-01
8.225e-01,6.177e-01
8.275e-01,5.926e-01
8.325e-01,5.675e-01
8.375e-01,5.426e-01
8.425e-01,5.179e-01
8.475e-01,4.934e-01
8.525e-01,4.691e-01
8.575e-01,4.451e-01
8.625e-01,4.213e-01
8.675e-01,3.978e-01
8.725e-01,3.747e-01
8.775e-01,3.519e-01
8.825e-01,3.294e-01
8.875e-01,3.074e-01
8.925e-01,2.858e-01
8.975e-01,2.647e-01
9.025e-01,2.441e-01
9.075e-01,2.240e-01
9.125e-01,2.045e-01
9.175e-01,1.856e-01
9.225e-01,1.673e-01
9.275e-01,1.496e-01
9.325e-01,1.327e-01
9.375e-01,1.165e-01
9.425e-01,1.011e-01
9.475e-01,8.659e-02
9.525e-01,7.292e-02
9.575e-01,6.018e-02
9.625e-01,4.843e-02
9.675e-01,3.774e-02
9.725e-01,2.816e-02
9.775e-01,1.978e-02
9.825e-01,1.268e-02
9.875e-01,6.969e-03
9.925e-01,2.798e-03
9.975e-01,3.892e-04
