transmittance,probability_density
2.500e-03,4.801e-03
7.500e-03,2.202e-02
1.250e-02,4.445e-02
1.750e-02,7.032e-02
2.250e-02,9.876e-02
2.750e-02,1.292e-01
3.250e-02,1.613e-01
3.750e-02,1.947e-01
4.250e-02,2.293e-01
4.750e-02,2.647e-01
5.250e-02,3.008e-01
5.750e-02,3.376e-01
6.250e-02,3.748e-01
6.750e-02,4.124e-01
7.250e-02,4.503e-01
7.750e-02,4.883e-01
8.250e-02,5.264e-01
8.750e-02,5.646e-01
9.250e-02,6.027e-01
9.750e-02,6.407e-01
1.025e-01,6.786e-01
1.075e-01,7.163e-01
1.125e-01,7.538e-01
1.175e-01,7.909e-01
1.225e-01,8.278e-01
1.275e-01,8.642e-01
1.325e-01,9.003e-01
1.375e-01,9.359e-01
1.425e-01,9.711e-01
1.475e-01,1.006e+00
1.525e-01,1.040e+00
1.575e-01,1.074e+00
1.625e-01,1.107e+00
1.675e-01,1.139e+00
1.725e-01,1.171e+00
1.775e-01,1.203e+00
1.825e-01,1.233e+00
1.875e-01,1.263e+00
1.925e-01,1.293e+00
1.975e-01,1.321e+00
2.025e-01,1.349e+00
2.075e-01,1.377e+00
2.125e-01,1.403e+00
2.175e-01,1.429e+00
2.225e-01,1.454e+00
2.275e-01,1.478e+00
2.325e-01,1.502e+00
2.375e-01,1.525e+00
2.425e-01,1.547e+00
2.475e-01,1.568e+00
2.525e-01,1.589e+00
2.575e-01,1.609e+00
2.625e-01,1.628e+00
2.675e-01,1.646e+00
2.725e-01,1.664e+00
2.775e-01,1.680e+00
2.825e-01,1.696e+00
2.875e-01,1.711e+00
2.925e-01,1.726e+00
2.975e-01,1.739e+00
3.025e-01,1.752e+00
3.075e-01,1.764e+00
3.125e-01,1.775e+00
3.175e-01,1.786e+00
3.225e-01,1.796e+00
3.275e-01,1.804e+00
3.325e-01,1.813e+00
3.375e-01,1.820e+00
3.425e-01,1.827e+00
3.475e-01,1.832e+00
3.525e-01,1.837e+00
3.575e-01,1.842e+00
3.625e-01,1.845e+00
3.675e-01,1.848e+00
3.725e-01,1.850e+00
3.775e-01,1.852e+00
3.825e-01,1.852e+00
3.875e-01,1.852e+00
3.925e-01,1.852e+00
3.975e-01,1.850e+00
4.025e-01,1.848e+00
4.075e-01,1.845e+00
4.125e-01,1.842e+00
4.175e-01,1.838e+00
4.225e-01,1.833e+00
4.275e-01,1.827e+00
4.325e-01,1.821e+00
4.375e-01,1.815e+00
4.425e-01,1.807e+00
4.475e-01,1.799e+00
4.525e-01,1.791e+00
4.575e-01,1.781e+00
4.625e-01,1.772e+00
4.675e-01,1.761e+00
4.725e-01,1.750e+00
4.775e-01,1.739e+00
4.825e-01,1.727e+00
4.875e-01,1.714e+00
4.925e-01,1.701e+00
4.975e-01,1.688e+00
5.025e-01,1.674e+00
5.075e-01,1.659e+00
5.125e-01,1.644e+00
5.175e-01,1.629e+00
5.225e-01,1.613e+00
5.275e-01,1.596e+00
5.325e-01,1.579e+00
5.375e-01,1.562e+00
5.425e-01,1.545e+00
5.475e-01,1.527e+00
5.525e-01,1.508e+00
5.575e-01,1.489e+00
5.625e-01,1.470e+00
5.675e-01,1.451e+00
5.725e-01,1.431e+00
5.775e-01,1.411e+00
5.825e-01,1.391e+00
5.875e-01,1.370e+00
5.925e-01,1.349e+00
5.975e-01,1.328e+00
6.025e-01,1.306e+00
6.075e-01,1.285e+00
6.125e-01,1.263e+00
6.175e-01,1.241e+00
6.225e-01,1.218e+00
6.275e-01,1.196e+00
6.325e-01,1.173e+00
6.375e-01,1.151e+00
6.425e-01,1.128e+00
6.475e-01,1.105e+00
6.525e-01,1.082e+00
6.575e-01,1.058e+00
6.625e-01,1.035e+00
6.675e-01,1.012e+00
6.725e-01,9.882e-01
6.775e-01,9.648e-01
6.825e-01,9.413e-01
6.875e-01,9.178e-01
6.925e-01,8.943e-01
6.975e-01,8.709e-01
7.025e-01,8.475e-01
7.075e-01,8.241e-01
7.125e-01,8.008e-01
7.175e-01,7.776e-01
7.225e-01,7.545e-01
7.275e-01,7.315e-01
7.325e-01,7.086e-01
7.375e-01,6.858e-01
7.425e-01,6.632e-01
7.475e-01,6.408e-01
7.525e-01,6.185e-01
7.575e-01,5.964e-01
7.625e-01,5.746e-01
7.675e-01,5.529e-01
7.725e-01,5.315e-01
7.775e-01,5.103e-01
7.825e-01,4.895e-01
7.875e-01,4.688e-01
7.925e-01,4.485e-01
7.975e-01,4.285e-01
8.025e-01,4.087e-01
8.075e-01,3.893e-01
8.125e-01,3.703e-01
8.175e-01,3.516e-01
8.225e-01,3.333e-01
8.275e-01,3.153e-01
8.325e-01,2.978e-01
8.375e-01,2.806e-01
8.425e-01,2.639e-01
8.475e-01,2.476e-01
8.525e-01,2.317e-01
8.575e-01,2.163e-01
8.625e-01,2.013e-01
8.675e-01,1.868e-01
8.725e-01,1.728e-01
8.775e-01,1.593e-01
8.825e-01,1.463e-01
8.875e-01,1.338e-01
8.925e-01,1.219e-01
8.975e-01,1.104e-01
9.025e-01,9.952e-02
9.075e-01,8.917e-02
9.125e-01,7.937e-02
9.175e-01,7.012e-02
9.225e-01,6.145e-02
9.275e-01,5.335e-02
9.325e-01,4.582e-02
9.375e-01,3.887e-02
9.425e-01,3.251e-02
9.475e-01,2.673e-02
9.525e-01,2.153e-02
9.575e-01,1.692e-02
9.625e-01,1.288e-02
9.675e-01,9.427e-03
9.725e-01,6.538e-03
9.775e-01,4.206e-03
9.825e-01,2.416e-03
9.875e-01,1.148e-03
9.925e-01,3.693e-04
9.975e-01,3.197e-05
