transmittance,probability_density
2.500e-03,7.078e-06
7.500e-03,1.045e-04
1.250e-02,3.641e-04
1.750e-02,8.272e-04
2.250e-02,1.525e-03
2.750e-02,2.481e-03
3.250e-02,3.718e-03
3.750e-02,5.253e-03
4.250e-02,7.103e-03
4.750e-02,9.279e-03
5.250e-02,1.180e-02
5.750e-02,1.466e-02
6.250e-02,1.789e-02
6.750e-02,2.148e-02
7.250e-02,2.545e-02
7.750e-02,2.980e-02
8.250e-02,3.453e-02
8.750e-02,3.966e-02
9.250e-02,4.518e-02
9.750e-02,5.110e-02
1.025e-01,5.743e-02
1.075e-01,6.415e-02
1.125e-01,7.129e-02
1.175e-01,7.883e-02
1.225e-01,8.677e-02
1.275e-01,9.513e-02
1.325e-01,1.039e-01
1.375e-01,1.131e-01
1.425e-01,1.226e-01
1.475e-01,1.326e-01
1.525e-01,1.430e-01
1.575e-01,1.538e-01
1.625e-01,1.649e-01
1.675e-01,1.765e-01
1.725e-01,1.885e-01
1.775e-01,2.008e-01
1.825e-01,2.135e-01
1.875e-01,2.267e-01
1.925e-01,2.401e-01
1.975e-01,2.540e-01
2.025e-01,2.682e-01
2.075e-01,2.828e-01
2.125e-01,2.977e-01
2.175e-01,3.130e-01
2.225e-01,3.287e-01
2.275e-01,3.446e-01
2.325e-01,3.609e-01
2.375e-01,3.775e-01
2.425e-01,3.945e-01
2.475e-01,4.117e-01
2.525e-01,4.293e-01
2.575e-01,4.471e-01
2.625e-01,4.652e-01
2.675e-01,4.837e-01
2.725e-01,5.023e-01
2.775e-01,5.213e-01
2.825e-01,5.405e-01
2.875e-01,5.599e-01
2.925e-01,5.796e-01
2.975e-01,5.995e-01
3.025e-01,6.197e-01
3.075e-01,6.400e-01
3.125e-01,6.606e-01
3.175e-01,6.813e-01
3.225e-01,7.022e-01
3.275e-01,7.233e-01
3.325e-01,7.446e-01
3.375e-01,7.660e-01
3.425e-01,7.875e-01
3.475e-01,8.092e-01
3.525e-01,8.310e-01
3.575e-01,8.529e-01
3.625e-01,8.749e-01
3.675e-01,8.970e-01
3.725e-01,9.192e-01
3.775e-01,9.414e-01
3.825e-01,9.637e-01
3.875e-01,9.860e-01
3.925e-01,1.008e+00
3.975e-01,1.031e+00
4.025e-01,1.053e+00
4.075e-01,1.076e+00
4.125e-01,1.098e+00
4.175e-01,1.120e+00
4.225e-01,1.143e+00
4.275e-01,1.165e+00
4.325e-01,1.187e+00
4.375e-01,1.209e+00
4.425e-01,1.231e+00
4.475e-01,1.253e+00
4.525e-01,1.275e+00
4.575e-01,1.296e+00
4.625e-01,1.318e+00
4.675e-01,1.339e+00
4.725e-01,1.360e+00
4.775e-01,1.381e+00
4.825e-01,1.402e+00
4.875e-01,1.423e+00
4.925e-01,1.443e+00
4.975e-01,1.463e+00
5.025e-01,1.483e+00
5.075e-01,1.503e+00
5.125e-01,1.522e+00
5.175e-01,1.541e+00
5.225e-01,1.560e+00
5.275e-01,1.579e+00
5.325e-01,1.597e+00
5.375e-01,1.614e+00
5.425e-01,1.632e+00
5.475e-01,1.649e+00
5.525e-01,1.666e+00
5.575e-01,1.682e+00
5.625e-01,1.698e+00
5.675e-01,1.713e+00
5.725e-01,1.728e+00
5.775e-01,1.742e+00
5.825e-01,1.756e+00
5.875e-01,1.770e+00
5.925e-01,1.783e+00
5.975e-01,1.796e+00
6.025e-01,1.808e+00
6.075e-01,1.819e+00
6.125e-01,1.830e+00
6.175e-01,1.840e+00
6.225e-01,1.850e+00
6.275e-01,1.859e+00
6.325e-01,1.867e+00
6.375e-01,1.875e+00
6.425e-01,1.883e+00
6.475e-01,1.889e+00
6.525e-01,1.895e+00
6.575e-01,1.900e+00
6.625e-01,1.905e+00
6.675e-01,1.908e+00
6.725e-01,1.911e+00
6.775e-01,1.914e+00
6.825e-01,1.915e+00
6.875e-01,1.916e+00
6.925e-01,1.916e+00
6.975e-01,1.915e+00
7.025e-01,1.913e+00
7.075e-01,1.911e+00
7.125e-01,1.907e+00
7.175e-01,1.903e+00
7.225e-01,1.898e+00
7.275e-01,1.892e+00
7.325e-01,1.885e+00
7.375e-01,1.878e+00
7.425e-01,1.869e+00
7.475e-01,1.859e+00
7.525e-01,1.849e+00
7.575e-01,1.837e+00
7.625e-01,1.824e+00
7.675e-01,1.811e+00
7.725e-01,1.796e+00
7.775e-01,1.781e+00
7.825e-01,1.764e+00
7.875e-01,1.746e+00
7.925e-01,1.728e+00
7.975e-01,1.708e+00
8.025e-01,1.687e+00
8.075e-01,1.665e+00
8.125e-01,1.642e+00
8.175e-01,1.618e+00
8.225e-01,1.593e+00
8.275e-01,1.566e+00
8.325e-01,1.539e+00
8.375e-01,1.510e+00
8.425e-01,1.481e+00
8.475e-01,1.450e+00
8.525e-01,1.418e+00
8.575e-01,1.384e+00
8.625e-01,1.350e+00
8.675e-01,1.314e+00
8.725e-01,1.277e+00
8.775e-01,1.240e+00
8.825e-01,1.200e+00
8.875e-01,1.160e+00
8.925e-01,1.119e+00
8.975e-01,1.076e+00
9.025e-01,1.032e+00
9.075e-01,9.870e-01
9.125e-01,9.408e-01
9.175e-01,8.935e-01
9.225e-01,8.451e-01
9.275e-01,7.956e-01
9.325e-01,7.449e-01
9.375e-01,6.933e-01
9.425e-01,6.406e-01
9.475e-01,5.869e-01
9.525e-01,5.323e-01
9.575e-01,4.768e-01
9.625e-01,4.206e-01
9.675e-01,3.637e-01
9.725e-01,3.063e-01
9.775e-01,2.485e-01
9.825e-01,1.906e-01
9.875e-01,1.331e-01
9.925e-01,7.663e-02
9.975e-01,2.305e-02
