transmittance,probability_density
2.500e-03,4.357e-04
7.500e-03,3.049e-03
1.250e-02,7.500e-03
1.750e-02,1.353e-02
2.250e-02,2.098e-02
2.750e-02,2.974e-02
3.250e-02,3.969e-02
3.750e-02,5.077e-02
4.250e-02,6.289e-02
4.750e-02,7.600e-02
5.250e-02,9.004e-02
5.750e-02,1.049e-01
6.250e-02,1.207e-01
6.750e-02,1.372e-01
7.250e-02,1.544e-01
7.750e-02,1.724e-01
8.250e-02,1.910e-01
8.750e-02,2.102e-01
9.250e-02,2.299e-01
9.750e-02,2.503e-01
1.025e-01,2.711e-01
1.075e-01,2.924e-01
1.125e-01,3.142e-01
1.175e-01,3.363e-01
1.225e-01,3.589e-01
1.275e-01,3.818e-01
1.325e-01,4.051e-01
1.375e-01,4.286e-01
1.425e-01,4.525e-01
1.475e-01,4.766e-01
1.525e-01,5.009e-01
1.575e-01,5.254e-01
1.625e-01,5.501e-01
1.675e-01,5.750e-01
1.725e-01,6.000e-01
1.775e-01,6.251e-01
1.825e-01,6.504e-01
1.875e-01,6.756e-01
1.925e-01,7.010e-01
1.975e-01,7.264e-01
2.025e-01,7.518e-01
2.075e-01,7.772e-01
2.125e-01,8.025e-01
2.175e-01,8.278e-01
2.225e-01,8.531e-01
2.275e-01,8.783e-01
2.325e-01,9.034e-01
2.375e-01,9.284e-01
2.425e-01,9.532e-01
2.475e-01,9.779e-01
2.525e-01,1.002e+00
2.575e-01,1.027e+00
2.625e-01,1.051e+00
2.675e-01,1.075e+00
2.725e-01,1.099e+00
2.775e-01,1.122e+00
2.825e-01,1.146e+00
2.875e-01,1.169e+00
2.925e-01,1.191e+00
2.975e-01,1.214e+00
3.025e-01,1.236e+00
3.075e-01,1.258e+00
3.125e-01,1.279e+00
3.175e-01,1.301e+00
3.225e-01,1.322e+00
3.275e-01,1.342e+00
3.325e-01,1.362e+00
3.375e-01,1.382e+00
3.425e-01,1.401e+00
3.475e-01,1.420e+00
3.525e-01,1.439e+00
3.575e-01,1.457e+00
3.625e-01,1.475e+00
3.675e-01,1.492e+00
3.725e-01,1.509e+00
3.775e-01,1.525e+00
3.825e-01,1.541e+00
3.875e-01,1.556e+00
3.925e-01,1.571e+00
3.975e-01,1.586e+00
4.025e-01,1.600e+00
4.075e-01,1.613e+00
4.125e-01,1.626e+00
4.175e-01,1.639e+00
4.225e-01,1.651e+00
4.275e-01,1.662e+00
4.325e-01,1.673e+00
4.375e-01,1.683e+00
4.425e-01,1.693e+00
4.475e-01,1.702e+00
4.525e-01,1.711e+00
4.575e-01,1.719e+00
4.625e-01,1.726e+00
4.675e-01,1.733e+00
4.725e-01,1.740e+00
4.775e-01,1.745e+00
4.825e-01,1.751e+00
4.875e-01,1.755e+00
4.925e-01,1.759e+00
4.975e-01,1.763e+00
5.025e-01,1.766e+00
5.075e-01,1.768e+00
5.125e-01,1.770e+00
5.175e-01,1.771e+00
5.225e-01,1.771e+00
5.275e-01,1.771e+00
5.325e-01,1.770e+00
5.375e-01,1.769e+00
5.425e-01,1.767e+00
5.475e-01,1.765e+00
5.525e-01,1.761e+00
5.575e-01,1.758e+00
5.625e-01,1.753e+00
5.675e-01,1.748e+00
5.725e-01,1.743e+00
5.775e-01,1.737e+00
5.825e-01,1.730e+00
5.875e-01,1.723e+00
5.925e-01,1.715e+00
5.975e-01,1.706e+00
6.025e-01,1.697e+00
6.075e-01,1.687e+00
6.125e-01,1.677e+00
6.175e-01,1.666e+00
6.225e-01,1.654e+00
6.275e-01,1.642e+00
6.325e-01,1.630e+00
6.375e-01,1.617e+00
6.425e-01,1.603e+00
6.475e-01,1.588e+00
6.525e-01,1.574e+00
6.575e-01,1.558e+00
6.625e-01,1.542e+00
6.675e-01,1.526e+00
6.725e-01,1.509e+00
6.775e-01,1.491e+00
6.825e-01,1.473e+00
6.875e-01,1.455e+00
6.925e-01,1.436e+00
6.975e-01,1.416e+00
7.025e-01,1.396e+00
7.075e-01,1.376e+00
7.125e-01,1.355e+00
7.175e-01,1.333e+00
7.225e-01,1.312e+00
7.275e-01,1.289e+00
7.325e-01,1.267e+00
7.375e-01,1.244e+00
7.425e-01,1.220e+00
7.475e-01,1.196e+00
7.525e-01,1.172e+00
7.575e-01,1.147e+00
7.625e-01,1.122e+00
7.675e-01,1.097e+00
7.725e-01,1.072e+00
7.775e-01,1.046e+00
7.825e-01,1.020e+00
7.875e-01,9.932e-01
7.925e-01,9.666e-01
7.975e-01,9.397e-01
8.025e-01,9.126e-01
8.075e-01,8.853e-01
8.125e-01,8.578e-01
8.175e-01,8.301e-01
8.225e-01,8.023e-01
8.275e-01,7.745e-01
8.325e-01,7.465e-01
8.375e-01,7.184e-01
8.425e-01,6.903e-01
8.475e-01,6.622e-01
8.525e-01,6.341e-01
8.575e-01,6.060e-01
8.625e-01,5.779e-01
8.675e-01,5.500e-01
8.725e-01,5.222e-01
8.775e-01,4.945e-01
8.825e-01,4.670e-01
8.875e-01,4.397e-01
8.925e-01,4.127e-01
8.975e-01,3.859e-01
9.025e-01,3.595e-01
9.075e-01,3.334e-01
9.125e-01,3.078e-01
9.175e-01,2.826e-01
9.225e-01,2.579e-01
9.275e-01,2.338e-01
9.325e-01,2.103e-01
9.375e-01,1.875e-01
9.425e-01,1.654e-01
9.475e-01,1.442e-01
9.525e-01,1.238e-01
9.575e-01,1.044e-01
9.625e-01,8.609e-02
9.675e-01,6.896e-02
9.725e-01,5.313e-02
9.775e-01,3.877e-02
9.825e-01,2.607e-02
9.875e-01,1.527e-02
9.925e-01,6.752e-03
9.975e-01,1.155e-03
