transmittance,probability_density
2.500e-03,4.733e-10
7.500e-03,4.174e-08
1.250e-02,3.344e-07
1.750e-02,1.315e-06
2.250e-02,3.654e-06
2.750e-02,8.257e-06
3.250e-02,1.627e-05
3.750e-02,2.906e-05
4.250e-02,4.825e-05
4.750e-02,7.569e-05
5.250e-02,1.134e-04
5.750e-02,1.638e-04
6.250e-02,2.293e-04
6.750e-02,3.128e-04
7.250e-02,4.171e-04
7.750e-02,5.454e-04
8.250e-02,7.013e-04
8.750e-02,8.881e-04
9.250e-02,1.110e-03
9.750e-02,1.370e-03
1.025e-01,1.674e-03
1.075e-01,2.025e-03
1.125e-01,2.428e-03
1.175e-01,2.888e-03
1.225e-01,3.410e-03
1.275e-01,3.998e-03
1.325e-01,4.659e-03
1.375e-01,5.397e-03
1.425e-01,6.218e-03
1.475e-01,7.128e-03
1.525e-01,8.133e-03
1.575e-01,9.239e-03
1.625e-01,1.045e-02
1.675e-01,1.178e-02
1.725e-01,1.322e-02
1.775e-01,1.479e-02
1.825e-01,1.650e-02
1.875e-01,1.834e-02
1.925e-01,2.033e-02
1.975e-01,2.248e-02
2.025e-01,2.478e-02
2.075e-01,2.725e-02
2.125e-01,2.990e-02
2.175e-01,3.273e-02
2.225e-01,3.575e-02
2.275e-01,3.896e-02
2.325e-01,4.238e-02
2.375e-01,4.601e-02
2.425e-01,4.986e-02
2.475e-01,5.394e-02
2.525e-01,5.825e-02
2.575e-01,6.281e-02
2.625e-01,6.761e-02
2.675e-01,7.267e-02
2.725e-01,7.800e-02
2.775e-01,8.360e-02
2.825e-01,8.948e-02
2.875e-01,9.564e-02
2.925e-01,1.021e-01
2.975e-01,1.089e-01
3.025e-01,1.159e-01
3.075e-01,1.233e-01
3.125e-01,1.311e-01
3.175e-01,1.391e-01
3.225e-01,1.475e-01
3.275e-01,1.562e-01
3.325e-01,1.653e-01
3.375e-01,1.748e-01
3.425e-01,1.846e-01
3.475e-01,1.948e-01
3.525e-01,2.054e-01
3.575e-01,2.163e-01
3.625e-01,2.277e-01
3.675e-01,2.394e-01
3.725e-01,2.516e-01
3.775e-01,2.641e-01
3.825e-01,2.771e-01
3.875e-01,2.905e-01
3.925e-01,3.044e-01
3.975e-01,3.186e-01
4.025e-01,3.333e-01
4.075e-01,3.485e-01
4.125e-01,3.641e-01
4.175e-01,3.801e-01
4.225e-01,3.966e-01
4.275e-01,4.136e-01
4.325e-01,4.310e-01
4.375e-01,4.489e-01
4.425e-01,4.672e-01
4.475e-01,4.860e-01
4.525e-01,5.053e-01
4.575e-01,5.251e-01
4.625e-01,5.453e-01
4.675e-01,5.660e-01
4.725e-01,5.872e-01
4.775e-01,6.089e-01
4.825e-01,6.310e-01
4.875e-01,6.536e-01
4.925e-01,6.767e-01
4.975e-01,7.002e-01
5.025e-01,7.243e-01
5.075e-01,7.488e-01
5.125e-01,7.737e-01
5.175e-01,7.991e-01
5.225e-01,8.250e-01
5.275e-01,8.514e-01
5.325e-01,8.781e-01
5.375e-01,9.054e-01
5.425e-01,9.330e-01
5.475e-01,9.611e-01
5.525e-01,9.897e-01
5.575e-01,1.019e+00
5.625e-01,1.048e+00
5.675e-01,1.078e+00
5.725e-01,1.108e+00
5.775e-01,1.138e+00
5.825e-01,1.169e+00
5.875e-01,1.200e+00
5.925e-01,1.232e+00
5.975e-01,1.264e+00
6.025e-01,1.296e+00
6.075e-01,1.329e+00
6.125e-01,1.361e+00
6.175e-01,1.394e+00
6.225e-01,1.428e+00
6.275e-01,1.461e+00
6.325e-01,1.495e+00
6.375e-01,1.529e+00
6.425e-01,1.563e+00
6.475e-01,1.597e+00
6.525e-01,1.632e+00
6.575e-01,1.666e+00
6.625e-01,1.701e+00
6.675e-01,1.735e+00
6.725e-01,1.770e+00
6.775e-01,1.804e+00
6.825e-01,1.839e+00
6.875e-01,1.873e+00
6.925e-01,1.908e+00
6.975e-01,1.942e+00
7.025e-01,1.976e+00
7.075e-01,2.010e+00
7.125e-01,2.043e+00
7.175e-01,2.077e+00
7.225e-01,2.109e+00
7.275e-01,2.142e+00
7.325e-01,2.174e+00
7.375e-01,2.206e+00
7.425e-01,2.237e+00
7.475e-01,2.267e+00
7.525e-01,2.297e+00
7.575e-01,2.326e+00
7.625e-01,2.354e+00
7.675e-01,2.382e+00
7.725e-01,2.409e+00
7.775e-01,2.434e+00
7.825e-01,2.459e+00
7.875e-01,2.483e+00
7.925e-01,2.505e+00
7.975e-01,2.526e+00
8.025e-01,2.546e+00
8.075e-01,2.564e+00
8.125e-01,2.581e+00
8.175e-01,2.597e+00
8.225e-01,2.610e+00
8.275e-01,2.622e+00
8.325e-01,2.632e+00
8.375e-01,2.640e+00
8.425e-01,2.646e+00
8.475e-01,2.650e+00
8.525e-01,2.651e+00
8.575e-01,2.649e+00
8.625e-01,2.645e+00
8.675e-01,2.638e+00
8.725e-01,2.629e+00
8.775e-01,2.616e+00
8.825e-01,2.599e+00
8.875e-01,2.579e+00
8.925e-01,2.556e+00
8.975e-01,2.528e+00
9.025e-01,2.496e+00
9.075e-01,2.460e+00
9.125e-01,2.419e+00
9.175e-01,2.372e+00
9.225e-01,2.321e+00
9.275e-01,2.263e+00
9.325e-01,2.199e+00
9.375e-01,2.129e+00
9.425e-01,2.051e+00
9.475e-01,1.965e+00
9.525e-01,1.871e+00
9.575e-01,1.767e+00
9.625e-01,1.652e+00
9.675e-01,1.525e+00
9.725e-01,1.384e+00
9.775e-01,1.226e+00
9.825e-01,1.048e+00
9.875e-01,8.435e-01
9.925e-01,6.001e-01
9.975e-01,2.817e-01
