transmittance,probability_density
2.500e-03,1.449e-20
7.500e-03,1.313e-16
1.250e-02,9.063e-15
1.750e-02,1.473e-13
2.250e-02,1.180e-12
2.750e-02,6.215e-12
3.250e-02,2.476e-11
3.750e-02,8.085e-11
4.250e-02,2.275e-10
4.750e-02,5.703e-10
5.250e-02,1.303e-09
5.750e-02,2.762e-09
6.250e-02,5.494e-09
6.750e-02,1.036e-08
7.250e-02,1.868e-08
7.750e-02,3.235e-08
8.250e-02,5.412e-08
8.750e-02,8.783e-08
9.250e-02,1.387e-07
9.750e-02,2.138e-07
1.025e-01,3.224e-07
1.075e-01,4.767e-07
1.125e-01,6.923e-07
1.175e-01,9.889e-07
1.225e-01,1.392e-06
1.275e-01,1.931e-06
1.325e-01,2.646e-06
1.375e-01,3.582e-06
1.425e-01,4.797e-06
1.475e-01,6.359e-06
1.525e-01,8.349e-06
1.575e-01,1.086e-05
1.625e-01,1.402e-05
1.675e-01,1.795e-05
1.725e-01,2.280e-05
1.775e-01,2.878e-05
1.825e-01,3.607e-05
1.875e-01,4.493e-05
1.925e-01,5.565e-05
1.975e-01,6.852e-05
2.025e-01,8.393e-05
2.075e-01,1.023e-04
2.125e-01,1.240e-04
2.175e-01,1.497e-04
2.225e-01,1.799e-04
2.275e-01,2.153e-04
2.325e-01,2.567e-04
2.375e-01,3.048e-04
2.425e-01,3.605e-04
2.475e-01,4.249e-04
2.525e-01,4.992e-04
2.575e-01,5.845e-04
2.625e-01,6.822e-04
2.675e-01,7.938e-04
2.725e-01,9.209e-04
2.775e-01,1.065e-03
2.825e-01,1.229e-03
2.875e-01,1.415e-03
2.925e-01,1.624e-03
2.975e-01,1.859e-03
3.025e-01,2.123e-03
3.075e-01,2.420e-03
3.125e-01,2.752e-03
3.175e-01,3.122e-03
3.225e-01,3.535e-03
3.275e-01,3.994e-03
3.325e-01,4.504e-03
3.375e-01,5.070e-03
3.425e-01,5.696e-03
3.475e-01,6.387e-03
3.525e-01,7.150e-03
3.575e-01,7.991e-03
3.625e-01,8.915e-03
3.675e-01,9.930e-03
3.725e-01,1.104e-02
3.775e-01,1.226e-02
3.825e-01,1.360e-02
3.875e-01,1.505e-02
3.925e-01,1.664e-02
3.975e-01,1.837e-02
4.025e-01,2.025e-02
4.075e-01,2.230e-02
4.125e-01,2.452e-02
4.175e-01,2.692e-02
4.225e-01,2.953e-02
4.275e-01,3.235e-02
4.325e-01,3.540e-02
4.375e-01,3.868e-02
4.425e-01,4.223e-02
4.475e-01,4.605e-02
4.525e-01,5.016e-02
4.575e-01,5.457e-02
4.625e-01,5.932e-02
4.675e-01,6.440e-02
4.725e-01,6.986e-02
4.775e-01,7.570e-02
4.825e-01,8.195e-02
4.875e-01,8.863e-02
4.925e-01,9.576e-02
4.975e-01,1.034e-01
5.025e-01,1.115e-01
5.075e-01,1.201e-01
5.125e-01,1.293e-01
5.175e-01,1.391e-01
5.225e-01,1.495e-01
5.275e-01,1.605e-01
5.325e-01,1.723e-01
5.375e-01,1.847e-01
5.425e-01,1.978e-01
5.475e-01,2.117e-01
5.525e-01,2.265e-01
5.575e-01,2.420e-01
5.625e-01,2.584e-01
5.675e-01,2.758e-01
5.725e-01,2.941e-01
5.775e-01,3.133e-01
5.825e-01,3.336e-01
5.875e-01,3.549e-01
5.925e-01,3.774e-01
5.975e-01,4.009e-01
6.025e-01,4.257e-01
6.075e-01,4.517e-01
6.125e-01,4.789e-01
6.175e-01,5.074e-01
6.225e-01,5.373e-01
6.275e-01,5.685e-01
6.325e-01,6.012e-01
6.375e-01,6.353e-01
6.425e-01,6.709e-01
6.475e-01,7.080e-01
6.525e-01,7.468e-01
6.575e-01,7.871e-01
6.625e-01,8.291e-01
6.675e-01,8.728e-01
6.725e-01,9.182e-01
6.775e-01,9.653e-01
6.825e-01,1.014e+00
6.875e-01,1.065e+00
6.925e-01,1.118e+00
6.975e-01,1.172e+00
7.025e-01,1.228e+00
7.075e-01,1.287e+00
7.125e-01,1.347e+00
7.175e-01,1.409e+00
7.225e-01,1.473e+00
7.275e-01,1.539e+00
7.325e-01,1.606e+00
7.375e-01,1.676e+00
7.425e-01,1.748e+00
7.475e-01,1.821e+00
7.525e-01,1.897e+00
7.575e-01,1.974e+00
7.625e-01,2.053e+00
7.675e-01,2.133e+00
7.725e-01,2.215e+00
7.775e-01,2.299e+00
7.825e-01,2.384e+00
7.875e-01,2.471e+00
7.925e-01,2.558e+00
7.975e-01,2.647e+00
8.025e-01,2.737e+00
8.075e-01,2.828e+00
8.125e-01,2.919e+00
8.175e-01,3.010e+00
8.225e-01,3.102e+00
8.275e-01,3.194e+00
8.325e-01,3.285e+00
8.375e-01,3.376e+00
8.425e-01,3.466e+00
8.475e-01,3.555e+00
8.525e-01,3.642e+00
8.575e-01,3.726e+00
8.625e-01,3.809e+00
8.675e-01,3.888e+00
8.725e-01,3.963e+00
8.775e-01,4.034e+00
8.825e-01,4.101e+00
8.875e-01,4.162e+00
8.925e-01,4.216e+00
8.975e-01,4.263e+00
9.025e-01,4.302e+00
9.075e-01,4.332e+00
9.125e-01,4.351e+00
9.175e-01,4.359e+00
9.225e-01,4.354e+00
9.275e-01,4.335e+00
9.325e-01,4.299e+00
9.375e-01,4.245e+00
9.425e-01,4.172e+00
9.475e-01,4.075e+00
9.525e-01,3.953e+00
9.575e-01,3.803e+00
9.625e-01,3.619e+00
9.675e-01,3.399e+00
9.725e-01,3.135e+00
9.775e-01,2.820e+00
9.825e-01,2.443e+00
9.875e-01,1.987e+00
9.925e-01,1.420e+00
9.975e-01,6.568e-01
