transmittance,probability_density
2.500e-03,1.433e-14
7.500e-03,8.989e-12
1.250e-02,1.793e-10
1.750e-02,1.287e-09
2.250e-02,5.603e-09
2.750e-02,1.812e-08
3.250e-02,4.813e-08
3.750e-02,1.111e-07
4.250e-02,2.307e-07
4.750e-02,4.416e-07
5.250e-02,7.919e-07
5.750e-02,1.346e-06
6.250e-02,2.188e-06
6.750e-02,3.425e-06
7.250e-02,5.192e-06
7.750e-02,7.652e-06
8.250e-02,1.101e-05
8.750e-02,1.549e-05
9.250e-02,2.139e-05
9.750e-02,2.903e-05
1.025e-01,3.880e-05
1.075e-01,5.113e-05
1.125e-01,6.653e-05
1.175e-01,8.556e-05
1.225e-01,1.089e-04
1.275e-01,1.372e-04
1.325e-01,1.713e-04
1.375e-01,2.122e-04
1.425e-01,2.607e-04
1.475e-01,3.180e-04
1.525e-01,3.854e-04
1.575e-01,4.640e-04
1.625e-01,5.553e-04
1.675e-01,6.610e-04
1.725e-01,7.826e-04
1.775e-01,9.220e-04
1.825e-01,1.081e-03
1.875e-01,1.262e-03
1.925e-01,1.467e-03
1.975e-01,1.699e-03
2.025e-01,1.960e-03
2.075e-01,2.253e-03
2.125e-01,2.581e-03
2.175e-01,2.947e-03
2.225e-01,3.354e-03
2.275e-01,3.806e-03
2.325e-01,4.307e-03
2.375e-01,4.860e-03
2.425e-01,5.470e-03
2.475e-01,6.141e-03
2.525e-01,6.878e-03
2.575e-01,7.685e-03
2.625e-01,8.568e-03
2.675e-01,9.531e-03
2.725e-01,1.058e-02
2.775e-01,1.172e-02
2.825e-01,1.296e-02
2.875e-01,1.431e-02
2.925e-01,1.576e-02
2.975e-01,1.734e-02
3.025e-01,1.903e-02
3.075e-01,2.086e-02
3.125e-01,2.283e-02
3.175e-01,2.495e-02
3.225e-01,2.723e-02
3.275e-01,2.967e-02
3.325e-01,3.228e-02
3.375e-01,3.507e-02
3.425e-01,3.805e-02
3.475e-01,4.124e-02
3.525e-01,4.464e-02
3.575e-01,4.826e-02
3.625e-01,5.210e-02
3.675e-01,5.620e-02
3.725e-01,6.054e-02
3.775e-01,6.515e-02
3.825e-01,7.004e-02
3.875e-01,7.521e-02
3.925e-01,8.068e-02
3.975e-01,8.647e-02
4.025e-01,9.258e-02
4.075e-01,9.903e-02
4.125e-01,1.058e-01
4.175e-01,1.130e-01
4.225e-01,1.205e-01
4.275e-01,1.285e-01
4.325e-01,1.368e-01
4.375e-01,1.456e-01
4.425e-01,1.548e-01
4.475e-01,1.644e-01
4.525e-01,1.745e-01
4.575e-01,1.851e-01
4.625e-01,1.962e-01
4.675e-01,2.078e-01
4.725e-01,2.199e-01
4.775e-01,2.326e-01
4.825e-01,2.458e-01
4.875e-01,2.596e-01
4.925e-01,2.740e-01
4.975e-01,2.890e-01
5.025e-01,3.046e-01
5.075e-01,3.209e-01
5.125e-01,3.378e-01
5.175e-01,3.553e-01
5.225e-01,3.736e-01
5.275e-01,3.926e-01
5.325e-01,4.122e-01
5.375e-01,4.326e-01
5.425e-01,4.538e-01
5.475e-01,4.757e-01
5.525e-01,4.984e-01
5.575e-01,5.219e-01
5.625e-01,5.462e-01
5.675e-01,5.713e-01
5.725e-01,5.973e-01
5.775e-01,6.241e-01
5.825e-01,6.517e-01
5.875e-01,6.803e-01
5.925e-01,7.097e-01
5.975e-01,7.400e-01
6.025e-01,7.713e-01
6.075e-01,8.034e-01
6.125e-01,8.365e-01
6.175e-01,8.705e-01
6.225e-01,9.054e-01
6.275e-01,9.413e-01
6.325e-01,9.781e-01
6.375e-01,1.016e+00
6.425e-01,1.055e+00
6.475e-01,1.094e+00
6.525e-01,1.135e+00
6.575e-01,1.177e+00
6.625e-01,1.219e+00
6.675e-01,1.263e+00
6.725e-01,1.307e+00
6.775e-01,1.353e+00
6.825e-01,1.399e+00
6.875e-01,1.446e+00
6.925e-01,1.494e+00
6.975e-01,1.544e+00
7.025e-01,1.593e+00
7.075e-01,1.644e+00
7.125e-01,1.696e+00
7.175e-01,1.748e+00
7.225e-01,1.801e+00
7.275e-01,1.855e+00
7.325e-01,1.910e+00
7.375e-01,1.965e+00
7.425e-01,2.021e+00
7.475e-01,2.077e+00
7.525e-01,2.134e+00
7.575e-01,2.191e+00
7.625e-01,2.249e+00
7.675e-01,2.307e+00
7.725e-01,2.365e+00
7.775e-01,2.424e+00
7.825e-01,2.482e+00
7.875e-01,2.541e+00
7.925e-01,2.599e+00
7.975e-01,2.658e+00
8.025e-01,2.716e+00
8.075e-01,2.773e+00
8.125e-01,2.830e+00
8.175e-01,2.886e+00
8.225e-01,2.941e+00
8.275e-01,2.996e+00
8.325e-01,3.049e+00
8.375e-01,3.101e+00
8.425e-01,3.151e+00
8.475e-01,3.199e+00
8.525e-01,3.245e+00
8.575e-01,3.289e+00
8.625e-01,3.331e+00
8.675e-01,3.369e+00
8.725e-01,3.405e+00
8.775e-01,3.437e+00
8.825e-01,3.465e+00
8.875e-01,3.489e+00
8.925e-01,3.508e+00
8.975e-01,3.522e+00
9.025e-01,3.530e+00
9.075e-01,3.532e+00
9.125e-01,3.528e+00
9.175e-01,3.515e+00
9.225e-01,3.495e+00
9.275e-01,3.465e+00
9.325e-01,3.425e+00
9.375e-01,3.373e+00
9.425e-01,3.309e+00
9.475e-01,3.231e+00
9.525e-01,3.137e+00
9.575e-01,3.024e+00
9.625e-01,2.891e+00
9.675e-01,2.733e+00
9.725e-01,2.547e+00
9.775e-01,2.325e+00
9.825e-01,2.058e+00
9.875e-01,1.730e+00
9.925e-01,1.309e+00
9.975e-01,6.941e-01
