transmittance,probability_density
2.500e-03,1.933e-10
7.500e-03,2.123e-08
1.250e-02,1.883e-07
1.750e-02,7.918e-07
2.250e-02,2.312e-06
2.750e-02,5.435e-06
3.250e-02,1.106e-05
3.750e-02,2.033e-05
4.250e-02,3.458e-05
4.750e-02,5.542e-05
5.250e-02,8.468e-05
5.750e-02,1.244e-04
6.250e-02,1.770e-04
6.750e-02,2.450e-04
7.250e-02,3.311e-04
7.750e-02,4.385e-04
8.250e-02,5.704e-04
8.750e-02,7.304e-04
9.250e-02,9.222e-04
9.750e-02,1.150e-03
1.025e-01,1.418e-03
1.075e-01,1.730e-03
1.125e-01,2.092e-03
1.175e-01,2.507e-03
1.225e-01,2.983e-03
1.275e-01,3.522e-03
1.325e-01,4.133e-03
1.375e-01,4.819e-03
1.425e-01,5.587e-03
1.475e-01,6.444e-03
1.525e-01,7.395e-03
1.575e-01,8.447e-03
1.625e-01,9.607e-03
1.675e-01,1.088e-02
1.725e-01,1.228e-02
1.775e-01,1.380e-02
1.825e-01,1.547e-02
1.875e-01,1.727e-02
1.925e-01,1.923e-02
1.975e-01,2.135e-02
2.025e-01,2.363e-02
2.075e-01,2.609e-02
2.125e-01,2.873e-02
2.175e-01,3.157e-02
2.225e-01,3.461e-02
2.275e-01,3.785e-02
2.325e-01,4.131e-02
2.375e-01,4.500e-02
2.425e-01,4.892e-02
2.475e-01,5.308e-02
2.525e-01,5.750e-02
2.575e-01,6.217e-02
2.625e-01,6.712e-02
2.675e-01,7.234e-02
2.725e-01,7.785e-02
2.775e-01,8.365e-02
2.825e-01,8.976e-02
2.875e-01,9.618e-02
2.925e-01,1.029e-01
2.975e-01,1.100e-01
3.025e-01,1.174e-01
3.075e-01,1.252e-01
3.125e-01,1.333e-01
3.175e-01,1.418e-01
3.225e-01,1.506e-01
3.275e-01,1.599e-01
3.325e-01,1.695e-01
3.375e-01,1.795e-01
3.425e-01,1.899e-01
3.475e-01,2.008e-01
3.525e-01,2.120e-01
3.575e-01,2.237e-01
3.625e-01,2.358e-01
3.675e-01,2.484e-01
3.725e-01,2.614e-01
3.775e-01,2.749e-01
3.825e-01,2.888e-01
3.875e-01,3.032e-01
3.925e-01,3.180e-01
3.975e-01,3.334e-01
4.025e-01,3.492e-01
4.075e-01,3.655e-01
4.125e-01,3.823e-01
4.175e-01,3.996e-01
4.225e-01,4.174e-01
4.275e-01,4.356e-01
4.325e-01,4.544e-01
4.375e-01,4.738e-01
4.425e-01,4.936e-01
4.475e-01,5.139e-01
4.525e-01,5.347e-01
4.575e-01,5.561e-01
4.625e-01,5.780e-01
4.675e-01,6.004e-01
4.725e-01,6.233e-01
4.775e-01,6.467e-01
4.825e-01,6.706e-01
4.875e-01,6.951e-01
4.925e-01,7.200e-01
4.975e-01,7.455e-01
5.025e-01,7.714e-01
5.075e-01,7.979e-01
5.125e-01,8.248e-01
5.175e-01,8.522e-01
5.225e-01,8.801e-01
5.275e-01,9.085e-01
5.325e-01,9.373e-01
5.375e-01,9.666e-01
5.425e-01,9.964e-01
5.475e-01,1.027e+00
5.525e-01,1.057e+00
5.575e-01,1.088e+00
5.625e-01,1.120e+00
5.675e-01,1.151e+00
5.725e-01,1.184e+00
5.775e-01,1.216e+00
5.825e-01,1.249e+00
5.875e-01,1.282e+00
5.925e-01,1.316e+00
5.975e-01,1.350e+00
6.025e-01,1.384e+00
6.075e-01,1.418e+00
6.125e-01,1.452e+00
6.175e-01,1.487e+00
6.225e-01,1.522e+00
6.275e-01,1.557e+00
6.325e-01,1.592e+00
6.375e-01,1.628e+00
6.425e-01,1.663e+00
6.475e-01,1.699e+00
6.525e-01,1.734e+00
6.575e-01,1.770e+00
6.625e-01,1.805e+00
6.675e-01,1.840e+00
6.725e-01,1.875e+00
6.775e-01,1.910e+00
6.825e-01,1.945e+00
6.875e-01,1.980e+00
6.925e-01,2.014e+00
6.975e-01,2.048e+00
7.025e-01,2.082e+00
7.075e-01,2.115e+00
7.125e-01,2.147e+00
7.175e-01,2.180e+00
7.225e-01,2.211e+00
7.275e-01,2.242e+00
7.325e-01,2.272e+00
7.375e-01,2.302e+00
7.425e-01,2.331e+00
7.475e-01,2.358e+00
7.525e-01,2.385e+00
7.575e-01,2.411e+00
7.625e-01,2.436e+00
7.675e-01,2.460e+00
7.725e-01,2.483e+00
7.775e-01,2.504e+00
7.825e-01,2.524e+00
7.875e-01,2.542e+00
7.925e-01,2.559e+00
7.975e-01,2.574e+00
8.025e-01,2.588e+00
8.075e-01,2.600e+00
8.125e-01,2.610e+00
8.175e-01,2.618e+00
8.225e-01,2.624e+00
8.275e-01,2.627e+00
8.325e-01,2.629e+00
8.375e-01,2.628e+00
8.425e-01,2.624e+00
8.475e-01,2.618e+00
8.525e-01,2.609e+00
8.575e-01,2.597e+00
8.625e-01,2.582e+00
8.675e-01,2.563e+00
8.725e-01,2.542e+00
8.775e-01,2.517e+00
8.825e-01,2.488e+00
8.875e-01,2.456e+00
8.925e-01,2.419e+00
8.975e-01,2.378e+00
9.025e-01,2.333e+00
9.075e-01,2.283e+00
9.125e-01,2.229e+00
9.175e-01,2.169e+00
9.225e-01,2.104e+00
9.275e-01,2.033e+00
9.325e-01,1.957e+00
9.375e-01,1.874e+00
9.425e-01,1.784e+00
9.475e-01,1.688e+00
9.525e-01,1.584e+00
9.575e-01,1.472e+00
9.625e-01,1.352e+00
9.675e-01,1.223e+00
9.725e-01,1.083e+00
9.775e-01,9.314e-01
9.825e-01,7.671e-01
9.875e-01,5.871e-01
9.925e-01,3.868e-01
9.975e-01,1.538e-01
