transmittance,probability_density
2.500e-03,4.495e-12
7.500e-03,9.520e-10
1.250e-02,1.146e-08
1.750e-02,5.898e-08
2.250e-02,2.003e-07
2.750e-02,5.313e-07
3.250e-02,1.196e-06
3.750e-02,2.396e-06
4.250e-02,4.397e-06
4.750e-02,7.539e-06
5.250e-02,1.224e-05
5.750e-02,1.902e-05
6.250e-02,2.846e-05
6.750e-02,4.129e-05
7.250e-02,5.831e-05
7.750e-02,8.044e-05
8.250e-02,1.087e-04
8.750e-02,1.444e-04
9.250e-02,1.887e-04
9.750e-02,2.431e-04
1.025e-01,3.091e-04
1.075e-01,3.885e-04
1.125e-01,4.832e-04
1.175e-01,5.953e-04
1.225e-01,7.268e-04
1.275e-01,8.802e-04
1.325e-01,1.058e-03
1.375e-01,1.263e-03
1.425e-01,1.497e-03
1.475e-01,1.765e-03
1.525e-01,2.069e-03
1.575e-01,2.412e-03
1.625e-01,2.799e-03
1.675e-01,3.232e-03
1.725e-01,3.717e-03
1.775e-01,4.256e-03
1.825e-01,4.855e-03
1.875e-01,5.517e-03
1.925e-01,6.248e-03
1.975e-01,7.052e-03
2.025e-01,7.935e-03
2.075e-01,8.901e-03
2.125e-01,9.957e-03
2.175e-01,1.111e-02
2.225e-01,1.236e-02
2.275e-01,1.372e-02
2.325e-01,1.519e-02
2.375e-01,1.678e-02
2.425e-01,1.850e-02
2.475e-01,2.034e-02
2.525e-01,2.233e-02
2.575e-01,2.447e-02
2.625e-01,2.676e-02
2.675e-01,2.921e-02
2.725e-01,3.183e-02
2.775e-01,3.463e-02
2.825e-01,3.762e-02
2.875e-01,4.079e-02
2.925e-01,4.417e-02
2.975e-01,4.776e-02
3.025e-01,5.157e-02
3.075e-01,5.561e-02
3.125e-01,5.988e-02
3.175e-01,6.440e-02
3.225e-01,6.917e-02
3.275e-01,7.421e-02
3.325e-01,7.952e-02
3.375e-01,8.511e-02
3.425e-01,9.100e-02
3.475e-01,9.718e-02
3.525e-01,1.037e-01
3.575e-01,1.105e-01
3.625e-01,1.177e-01
3.675e-01,1.252e-01
3.725e-01,1.330e-01
3.775e-01,1.412e-01
3.825e-01,1.498e-01
3.875e-01,1.588e-01
3.925e-01,1.681e-01
3.975e-01,1.779e-01
4.025e-01,1.881e-01
4.075e-01,1.987e-01
4.125e-01,2.097e-01
4.175e-01,2.212e-01
4.225e-01,2.331e-01
4.275e-01,2.455e-01
4.325e-01,2.584e-01
4.375e-01,2.717e-01
4.425e-01,2.856e-01
4.475e-01,2.999e-01
4.525e-01,3.148e-01
4.575e-01,3.302e-01
4.625e-01,3.461e-01
4.675e-01,3.625e-01
4.725e-01,3.795e-01
4.775e-01,3.971e-01
4.825e-01,4.152e-01
4.875e-01,4.339e-01
4.925e-01,4.532e-01
4.975e-01,4.731e-01
5.025e-01,4.936e-01
5.075e-01,5.146e-01
5.125e-01,5.363e-01
5.175e-01,5.586e-01
5.225e-01,5.815e-01
5.275e-01,6.051e-01
5.325e-01,6.293e-01
5.375e-01,6.541e-01
5.425e-01,6.796e-01
5.475e-01,7.057e-01
5.525e-01,7.324e-01
5.575e-01,7.598e-01
5.625e-01,7.879e-01
5.675e-01,8.166e-01
5.725e-01,8.460e-01
5.775e-01,8.760e-01
5.825e-01,9.066e-01
5.875e-01,9.380e-01
5.925e-01,9.699e-01
5.975e-01,1.003e+00
6.025e-01,1.036e+00
6.075e-01,1.070e+00
6.125e-01,1.104e+00
6.175e-01,1.139e+00
6.225e-01,1.175e+00
6.275e-01,1.211e+00
6.325e-01,1.248e+00
6.375e-01,1.286e+00
6.425e-01,1.324e+00
6.475e-01,1.363e+00
6.525e-01,1.402e+00
6.575e-01,1.442e+00
6.625e-01,1.482e+00
6.675e-01,1.522e+00
6.725e-01,1.564e+00
6.775e-01,1.605e+00
6.825e-01,1.647e+00
6.875e-01,1.690e+00
6.925e-01,1.732e+00
6.975e-01,1.776e+00
7.025e-01,1.819e+00
7.075e-01,1.863e+00
7.125e-01,1.906e+00
7.175e-01,1.950e+00
7.225e-01,1.995e+00
7.275e-01,2.039e+00
7.325e-01,2.083e+00
7.375e-01,2.128e+00
7.425e-01,2.172e+00
7.475e-01,2.216e+00
7.525e-01,2.260e+00
7.575e-01,2.304e+00
7.625e-01,2.348e+00
7.675e-01,2.391e+00
7.725e-01,2.434e+00
7.775e-01,2.476e+00
7.825e-01,2.518e+00
7.875e-01,2.559e+00
7.925e-01,2.599e+00
7.975e-01,2.638e+00
8.025e-01,2.676e+00
8.075e-01,2.714e+00
8.125e-01,2.750e+00
8.175e-01,2.785e+00
8.225e-01,2.818e+00
8.275e-01,2.850e+00
8.325e-01,2.880e+00
8.375e-01,2.908e+00
8.425e-01,2.935e+00
8.475e-01,2.959e+00
8.525e-01,2.980e+00
8.575e-01,2.999e+00
8.625e-01,3.016e+00
8.675e-01,3.029e+00
8.725e-01,3.039e+00
8.775e-01,3.046e+00
8.825e-01,3.049e+00
8.875e-01,3.048e+00
8.925e-01,3.042e+00
8.975e-01,3.032e+00
9.025e-01,3.017e+00
9.075e-01,2.997e+00
9.125e-01,2.970e+00
9.175e-01,2.938e+00
9.225e-01,2.898e+00
9.275e-01,2.851e+00
9.325e-01,2.795e+00
9.375e-01,2.731e+00
9.425e-01,2.657e+00
9.475e-01,2.571e+00
9.525e-01,2.474e+00
9.575e-01,2.363e+00
9.625e-01,2.237e+00
9.675e-01,2.093e+00
9.725e-01,1.928e+00
9.775e-01,1.738e+00
9.825e-01,1.517e+00
9.875e-01,1.253e+00
9.925e-01,9.251e-01
9.975e-01,4.684e-01
