transmittance,probability_density
2.500e-03,1.108e-17
7.500e-03,2.698e-14
1.250e-02,1.011e-12
1.750e-02,1.100e-11
2.250e-02,6.530e-11
2.750e-02,2.706e-10
3.250e-02,8.835e-10
3.750e-02,2.433e-09
4.250e-02,5.899e-09
4.750e-02,1.295e-08
5.250e-02,2.628e-08
5.750e-02,4.999e-08
6.250e-02,9.008e-08
6.750e-02,1.551e-07
7.250e-02,2.568e-07
7.750e-02,4.110e-07
8.250e-02,6.385e-07
8.750e-02,9.666e-07
9.250e-02,1.429e-06
9.750e-02,2.071e-06
1.025e-01,2.944e-06
1.075e-01,4.114e-06
1.125e-01,5.663e-06
1.175e-01,7.686e-06
1.225e-01,1.030e-05
1.275e-01,1.363e-05
1.325e-01,1.786e-05
1.375e-01,2.315e-05
1.425e-01,2.973e-05
1.475e-01,3.784e-05
1.525e-01,4.778e-05
1.575e-01,5.987e-05
1.625e-01,7.449e-05
1.675e-01,9.204e-05
1.725e-01,1.130e-04
1.775e-01,1.379e-04
1.825e-01,1.674e-04
1.875e-01,2.021e-04
1.925e-01,2.427e-04
1.975e-01,2.901e-04
2.025e-01,3.452e-04
2.075e-01,4.089e-04
2.125e-01,4.825e-04
2.175e-01,5.669e-04
2.225e-01,6.637e-04
2.275e-01,7.742e-04
2.325e-01,8.999e-04
2.375e-01,1.043e-03
2.425e-01,1.204e-03
2.475e-01,1.386e-03
2.525e-01,1.592e-03
2.575e-01,1.822e-03
2.625e-01,2.081e-03
2.675e-01,2.369e-03
2.725e-01,2.691e-03
2.775e-01,3.050e-03
2.825e-01,3.448e-03
2.875e-01,3.889e-03
2.925e-01,4.377e-03
2.975e-01,4.916e-03
3.025e-01,5.510e-03
3.075e-01,6.164e-03
3.125e-01,6.882e-03
3.175e-01,7.670e-03
3.225e-01,8.533e-03
3.275e-01,9.476e-03
3.325e-01,1.051e-02
3.375e-01,1.163e-02
3.425e-01,1.285e-02
3.475e-01,1.418e-02
3.525e-01,1.562e-02
3.575e-01,1.719e-02
3.625e-01,1.888e-02
3.675e-01,2.071e-02
3.725e-01,2.269e-02
3.775e-01,2.482e-02
3.825e-01,2.712e-02
3.875e-01,2.960e-02
3.925e-01,3.227e-02
3.975e-01,3.513e-02
4.025e-01,3.820e-02
4.075e-01,4.149e-02
4.125e-01,4.502e-02
4.175e-01,4.879e-02
4.225e-01,5.282e-02
4.275e-01,5.713e-02
4.325e-01,6.172e-02
4.375e-01,6.662e-02
4.425e-01,7.184e-02
4.475e-01,7.739e-02
4.525e-01,8.329e-02
4.575e-01,8.956e-02
4.625e-01,9.622e-02
4.675e-01,1.033e-01
4.725e-01,1.108e-01
4.775e-01,1.187e-01
4.825e-01,1.271e-01
4.875e-01,1.359e-01
4.925e-01,1.453e-01
4.975e-01,1.552e-01
5.025e-01,1.656e-01
5.075e-01,1.766e-01
5.125e-01,1.882e-01
5.175e-01,2.004e-01
5.225e-01,2.133e-01
5.275e-01,2.268e-01
5.325e-01,2.409e-01
5.375e-01,2.558e-01
5.425e-01,2.715e-01
5.475e-01,2.879e-01
5.525e-01,3.050e-01
5.575e-01,3.230e-01
5.625e-01,3.418e-01
5.675e-01,3.615e-01
5.725e-01,3.821e-01
5.775e-01,4.036e-01
5.825e-01,4.261e-01
5.875e-01,4.495e-01
5.925e-01,4.740e-01
5.975e-01,4.994e-01
6.025e-01,5.260e-01
6.075e-01,5.536e-01
6.125e-01,5.823e-01
6.175e-01,6.122e-01
6.225e-01,6.432e-01
6.275e-01,6.755e-01
6.325e-01,7.089e-01
6.375e-01,7.436e-01
6.425e-01,7.796e-01
6.475e-01,8.168e-01
6.525e-01,8.554e-01
6.575e-01,8.953e-01
6.625e-01,9.366e-01
6.675e-01,9.792e-01
6.725e-01,1.023e+00
6.775e-01,1.069e+00
6.825e-01,1.116e+00
6.875e-01,1.164e+00
6.925e-01,1.214e+00
6.975e-01,1.265e+00
7.025e-01,1.318e+00
7.075e-01,1.372e+00
7.125e-01,1.428e+00
7.175e-01,1.485e+00
7.225e-01,1.543e+00
7.275e-01,1.603e+00
7.325e-01,1.665e+00
7.375e-01,1.728e+00
7.425e-01,1.792e+00
7.475e-01,1.858e+00
7.525e-01,1.925e+00
7.575e-01,1.993e+00
7.625e-01,2.063e+00
7.675e-01,2.134e+00
7.725e-01,2.206e+00
7.775e-01,2.279e+00
7.825e-01,2.353e+00
7.875e-01,2.428e+00
7.925e-01,2.504e+00
7.975e-01,2.581e+00
8.025e-01,2.659e+00
8.075e-01,2.736e+00
8.125e-01,2.815e+00
8.175e-01,2.893e+00
8.225e-01,2.972e+00
8.275e-01,3.050e+00
8.325e-01,3.129e+00
8.375e-01,3.206e+00
8.425e-01,3.283e+00
8.475e-01,3.359e+00
8.525e-01,3.434e+00
8.575e-01,3.507e+00
8.625e-01,3.578e+00
8.675e-01,3.647e+00
8.725e-01,3.713e+00
8.775e-01,3.776e+00
8.825e-01,3.836e+00
8.875e-01,3.891e+00
8.925e-01,3.942e+00
8.975e-01,3.987e+00
9.025e-01,4.026e+00
9.075e-01,4.058e+00
9.125e-01,4.083e+00
9.175e-01,4.099e+00
9.225e-01,4.105e+00
9.275e-01,4.100e+00
9.325e-01,4.083e+00
9.375e-01,4.051e+00
9.425e-01,4.004e+00
9.475e-01,3.939e+00
9.525e-01,3.853e+00
9.575e-01,3.744e+00
9.625e-01,3.607e+00
9.675e-01,3.437e+00
9.725e-01,3.229e+00
9.775e-01,2.973e+00
9.825e-01,2.655e+00
9.875e-01,2.255e+00
9.925e-01,1.726e+00
9.975e-01,9.319e-01
