transmittance,probability_density
2.500e-03,3.244e-46
7.500e-03,2.033e-37
1.250e-02,2.498e-33
1.750e-02,1.231e-30
2.250e-02,1.262e-28
2.750e-02,5.087e-27
3.250e-02,1.102e-25
3.750e-02,1.536e-24
4.250e-02,1.538e-23
4.750e-02,1.190e-22
5.250e-02,7.501e-22
5.750e-02,3.996e-21
6.250e-02,1.851e-20
6.750e-02,7.614e-20
7.250e-02,2.830e-19
7.750e-02,9.634e-19
8.250e-02,3.037e-18
8.750e-02,8.943e-18
9.250e-02,2.480e-17
9.750e-02,6.514e-17
1.025e-01,1.630e-16
1.075e-01,3.903e-16
1.125e-01,8.981e-16
1.175e-01,1.992e-15
1.225e-01,4.275e-15
1.275e-01,8.893e-15
1.325e-01,1.798e-14
1.375e-01,3.542e-14
1.425e-01,6.808e-14
1.475e-01,1.279e-13
1.525e-01,2.353e-13
1.575e-01,4.242e-13
1.625e-01,7.508e-13
1.675e-01,1.306e-12
1.725e-01,2.234e-12
1.775e-01,3.763e-12
1.825e-01,6.246e-12
1.875e-01,1.022e-11
1.925e-01,1.652e-11
1.975e-01,2.636e-11
2.025e-01,4.156e-11
2.075e-01,6.479e-11
2.125e-01,9.994e-11
2.175e-01,1.526e-10
2.225e-01,2.307e-10
2.275e-01,3.455e-10
2.325e-01,5.128e-10
2.375e-01,7.547e-10
2.425e-01,1.102e-09
2.475e-01,1.595e-09
2.525e-01,2.293e-09
2.575e-01,3.272e-09
2.625e-01,4.636e-09
2.675e-01,6.525e-09
2.725e-01,9.124e-09
2.775e-01,1.268e-08
2.825e-01,1.751e-08
2.875e-01,2.405e-08
2.925e-01,3.284e-08
2.975e-01,4.460e-08
3.025e-01,6.025e-08
3.075e-01,8.099e-08
3.125e-01,1.083e-07
3.175e-01,1.442e-07
3.225e-01,1.911e-07
3.275e-01,2.521e-07
3.325e-01,3.311e-07
3.375e-01,4.330e-07
3.425e-01,5.640e-07
3.475e-01,7.316e-07
3.525e-01,9.455e-07
3.575e-01,1.217e-06
3.625e-01,1.562e-06
3.675e-01,1.996e-06
3.725e-01,2.542e-06
3.775e-01,3.227e-06
3.825e-01,4.084e-06
3.875e-01,5.150e-06
3.925e-01,6.475e-06
3.975e-01,8.117e-06
4.025e-01,1.014e-05
4.075e-01,1.264e-05
4.125e-01,1.571e-05
4.175e-01,1.946e-05
4.225e-01,2.405e-05
4.275e-01,2.964e-05
4.325e-01,3.644e-05
4.375e-01,4.468e-05
4.425e-01,5.465e-05
4.475e-01,6.668e-05
4.525e-01,8.116e-05
4.575e-01,9.857e-05
4.625e-01,1.194e-04
4.675e-01,1.444e-04
4.725e-01,1.742e-04
4.775e-01,2.097e-04
4.825e-01,2.519e-04
4.875e-01,3.019e-04
4.925e-01,3.612e-04
4.975e-01,4.312e-04
5.025e-01,5.138e-04
5.075e-01,6.111e-04
5.125e-01,7.254e-04
5.175e-01,8.595e-04
5.225e-01,1.017e-03
5.275e-01,1.200e-03
5.325e-01,1.414e-03
5.375e-01,1.664e-03
5.425e-01,1.954e-03
5.475e-01,2.292e-03
5.525e-01,2.683e-03
5.575e-01,3.135e-03
5.625e-01,3.658e-03
5.675e-01,4.262e-03
5.725e-01,4.957e-03
5.775e-01,5.757e-03
5.825e-01,6.676e-03
5.875e-01,7.731e-03
5.925e-01,8.938e-03
5.975e-01,1.032e-02
6.025e-01,1.190e-02
6.075e-01,1.370e-02
6.125e-01,1.575e-02
6.175e-01,1.808e-02
6.225e-01,2.073e-02
6.275e-01,2.373e-02
6.325e-01,2.714e-02
6.375e-01,3.099e-02
6.425e-01,3.534e-02
6.475e-01,4.025e-02
6.525e-01,4.578e-02
6.575e-01,5.201e-02
6.625e-01,5.901e-02
6.675e-01,6.687e-02
6.725e-01,7.568e-02
6.775e-01,8.555e-02
6.825e-01,9.659e-02
6.875e-01,1.089e-01
6.925e-01,1.227e-01
6.975e-01,1.380e-01
7.025e-01,1.550e-01
7.075e-01,1.740e-01
7.125e-01,1.950e-01
7.175e-01,2.183e-01
7.225e-01,2.442e-01
7.275e-01,2.727e-01
7.325e-01,3.042e-01
7.375e-01,3.390e-01
7.425e-01,3.773e-01
7.475e-01,4.195e-01
7.525e-01,4.658e-01
7.575e-01,5.166e-01
7.625e-01,5.722e-01
7.675e-01,6.331e-01
7.725e-01,6.996e-01
7.775e-01,7.722e-01
7.825e-01,8.512e-01
7.875e-01,9.372e-01
7.925e-01,1.031e+00
7.975e-01,1.132e+00
8.025e-01,1.241e+00
8.075e-01,1.360e+00
8.125e-01,1.488e+00
8.175e-01,1.625e+00
8.225e-01,1.773e+00
8.275e-01,1.932e+00
8.325e-01,2.102e+00
8.375e-01,2.283e+00
8.425e-01,2.476e+00
8.475e-01,2.682e+00
8.525e-01,2.899e+00
8.575e-01,3.129e+00
8.625e-01,3.372e+00
8.675e-01,3.626e+00
8.725e-01,3.893e+00
8.775e-01,4.170e+00
8.825e-01,4.458e+00
8.875e-01,4.755e+00
8.925e-01,5.059e+00
8.975e-01,5.370e+00
9.025e-01,5.684e+00
9.075e-01,5.998e+00
9.125e-01,6.309e+00
9.175e-01,6.613e+00
9.225e-01,6.905e+00
9.275e-01,7.178e+00
9.325e-01,7.425e+00
9.375e-01,7.639e+00
9.425e-01,7.809e+00
9.475e-01,7.923e+00
9.525e-01,7.968e+00
9.575e-01,7.928e+00
9.625e-01,7.785e+00
9.675e-01,7.517e+00
9.725e-01,7.097e+00
9.775e-01,6.495e+00
9.825e-01,5.673e+00
9.875e-01,4.582e+00
9.925e-01,3.155e+00
9.975e-01,1.269e+00
