transmittance,probability_density
2.500e-03,7.190e-37
7.500e-03,7.635e-30
1.250e-02,1.409e-26
1.750e-02,1.993e-24
2.250e-02,8.043e-23
2.750e-02,1.540e-21
3.250e-02,1.796e-20
3.750e-02,1.472e-19
4.250e-02,9.264e-19
4.750e-02,4.748e-18
5.250e-02,2.065e-17
5.750e-02,7.855e-17
6.250e-02,2.671e-16
6.750e-02,8.265e-16
7.250e-02,2.358e-15
7.750e-02,6.271e-15
8.250e-02,1.568e-14
8.750e-02,3.715e-14
9.250e-02,8.386e-14
9.750e-02,1.813e-13
1.025e-01,3.771e-13
1.075e-01,7.573e-13
1.125e-01,1.473e-12
1.175e-01,2.782e-12
1.225e-01,5.118e-12
1.275e-01,9.184e-12
1.325e-01,1.611e-11
1.375e-01,2.768e-11
1.425e-01,4.663e-11
1.475e-01,7.714e-11
1.525e-01,1.255e-10
1.575e-01,2.009e-10
1.625e-01,3.168e-10
1.675e-01,4.927e-10
1.725e-01,7.563e-10
1.775e-01,1.147e-09
1.825e-01,1.718e-09
1.875e-01,2.546e-09
1.925e-01,3.734e-09
1.975e-01,5.421e-09
2.025e-01,7.796e-09
2.075e-01,1.111e-08
2.125e-01,1.570e-08
2.175e-01,2.201e-08
2.225e-01,3.060e-08
2.275e-01,4.224e-08
2.325e-01,5.789e-08
2.375e-01,7.879e-08
2.425e-01,1.065e-07
2.475e-01,1.432e-07
2.525e-01,1.912e-07
2.575e-01,2.539e-07
2.625e-01,3.353e-07
2.675e-01,4.403e-07
2.725e-01,5.753e-07
2.775e-01,7.480e-07
2.825e-01,9.677e-07
2.875e-01,1.246e-06
2.925e-01,1.598e-06
2.975e-01,2.040e-06
3.025e-01,2.593e-06
3.075e-01,3.282e-06
3.125e-01,4.139e-06
3.175e-01,5.199e-06
3.225e-01,6.507e-06
3.275e-01,8.115e-06
3.325e-01,1.008e-05
3.375e-01,1.249e-05
3.425e-01,1.542e-05
3.475e-01,1.898e-05
3.525e-01,2.328e-05
3.575e-01,2.847e-05
3.625e-01,3.473e-05
3.675e-01,4.223e-05
3.725e-01,5.121e-05
3.775e-01,6.193e-05
3.825e-01,7.471e-05
3.875e-01,8.988e-05
3.925e-01,1.079e-04
3.975e-01,1.291e-04
4.025e-01,1.542e-04
4.075e-01,1.838e-04
4.125e-01,2.185e-04
4.175e-01,2.592e-04
4.225e-01,3.068e-04
4.275e-01,3.624e-04
4.325e-01,4.271e-04
4.375e-01,5.024e-04
4.425e-01,5.899e-04
4.475e-01,6.911e-04
4.525e-01,8.083e-04
4.575e-01,9.435e-04
4.625e-01,1.099e-03
4.675e-01,1.279e-03
4.725e-01,1.484e-03
4.775e-01,1.721e-03
4.825e-01,1.991e-03
4.875e-01,2.300e-03
4.925e-01,2.652e-03
4.975e-01,3.054e-03
5.025e-01,3.511e-03
5.075e-01,4.031e-03
5.125e-01,4.620e-03
5.175e-01,5.287e-03
5.225e-01,6.042e-03
5.275e-01,6.895e-03
5.325e-01,7.857e-03
5.375e-01,8.941e-03
5.425e-01,1.016e-02
5.475e-01,1.153e-02
5.525e-01,1.307e-02
5.575e-01,1.479e-02
5.625e-01,1.672e-02
5.675e-01,1.888e-02
5.725e-01,2.129e-02
5.775e-01,2.398e-02
5.825e-01,2.697e-02
5.875e-01,3.030e-02
5.925e-01,3.401e-02
5.975e-01,3.812e-02
6.025e-01,4.268e-02
6.075e-01,4.773e-02
6.125e-01,5.331e-02
6.175e-01,5.949e-02
6.225e-01,6.631e-02
6.275e-01,7.382e-02
6.325e-01,8.211e-02
6.375e-01,9.122e-02
6.425e-01,1.012e-01
6.475e-01,1.122e-01
6.525e-01,1.243e-01
6.575e-01,1.375e-01
6.625e-01,1.520e-01
6.675e-01,1.678e-01
6.725e-01,1.851e-01
6.775e-01,2.040e-01
6.825e-01,2.246e-01
6.875e-01,2.470e-01
6.925e-01,2.714e-01
6.975e-01,2.979e-01
7.025e-01,3.266e-01
7.075e-01,3.578e-01
7.125e-01,3.916e-01
7.175e-01,4.282e-01
7.225e-01,4.677e-01
7.275e-01,5.104e-01
7.325e-01,5.564e-01
7.375e-01,6.061e-01
7.425e-01,6.595e-01
7.475e-01,7.169e-01
7.525e-01,7.786e-01
7.575e-01,8.448e-01
7.625e-01,9.157e-01
7.675e-01,9.916e-01
7.725e-01,1.073e+00
7.775e-01,1.159e+00
7.825e-01,1.252e+00
7.875e-01,1.350e+00
7.925e-01,1.455e+00
7.975e-01,1.566e+00
8.025e-01,1.683e+00
8.075e-01,1.808e+00
8.125e-01,1.940e+00
8.175e-01,2.079e+00
8.225e-01,2.225e+00
8.275e-01,2.379e+00
8.325e-01,2.541e+00
8.375e-01,2.710e+00
8.425e-01,2.887e+00
8.475e-01,3.071e+00
8.525e-01,3.263e+00
8.575e-01,3.462e+00
8.625e-01,3.667e+00
8.675e-01,3.879e+00
8.725e-01,4.097e+00
8.775e-01,4.319e+00
8.825e-01,4.546e+00
8.875e-01,4.775e+00
8.925e-01,5.005e+00
8.975e-01,5.236e+00
9.025e-01,5.464e+00
9.075e-01,5.688e+00
9.125e-01,5.905e+00
9.175e-01,6.112e+00
9.225e-01,6.306e+00
9.275e-01,6.481e+00
9.325e-01,6.634e+00
9.375e-01,6.758e+00
9.425e-01,6.847e+00
9.475e-01,6.893e+00
9.525e-01,6.888e+00
9.575e-01,6.820e+00
9.625e-01,6.677e+00
9.675e-01,6.443e+00
9.725e-01,6.100e+00
9.775e-01,5.622e+00
9.825e-01,4.979e+00
9.875e-01,4.124e+00
9.925e-01,2.978e+00
9.975e-01,1.358e+00
