transmittance,probability_density
2.500e-03,5.045e-33
7.500e-03,9.991e-27
1.250e-02,8.444e-24
1.750e-02,7.144e-22
2.250e-02,1.964e-20
2.750e-02,2.766e-19
3.250e-02,2.500e-18
3.750e-02,1.647e-17
4.250e-02,8.564e-17
4.750e-02,3.704e-16
5.250e-02,1.383e-15
5.750e-02,4.577e-15
6.250e-02,1.371e-14
6.750e-02,3.771e-14
7.250e-02,9.648e-14
7.750e-02,2.318e-13
8.250e-02,5.269e-13
8.750e-02,1.141e-12
9.250e-02,2.367e-12
9.750e-02,4.723e-12
1.025e-01,9.103e-12
1.075e-01,1.700e-11
1.125e-01,3.085e-11
1.175e-01,5.455e-11
1.225e-01,9.417e-11
1.275e-01,1.590e-10
1.325e-01,2.631e-10
1.375e-01,4.273e-10
1.425e-01,6.817e-10
1.475e-01,1.070e-09
1.525e-01,1.655e-09
1.575e-01,2.522e-09
1.625e-01,3.794e-09
1.675e-01,5.635e-09
1.725e-01,8.272e-09
1.775e-01,1.201e-08
1.825e-01,1.725e-08
1.875e-01,2.454e-08
1.925e-01,3.457e-08
1.975e-01,4.828e-08
2.025e-01,6.685e-08
2.075e-01,9.182e-08
2.125e-01,1.252e-07
2.175e-01,1.693e-07
2.225e-01,2.275e-07
2.275e-01,3.037e-07
2.325e-01,4.027e-07
2.375e-01,5.307e-07
2.425e-01,6.954e-07
2.475e-01,9.060e-07
2.525e-01,1.174e-06
2.575e-01,1.513e-06
2.625e-01,1.941e-06
2.675e-01,2.478e-06
2.725e-01,3.148e-06
2.775e-01,3.982e-06
2.825e-01,5.015e-06
2.875e-01,6.290e-06
2.925e-01,7.857e-06
2.975e-01,9.776e-06
3.025e-01,1.212e-05
3.075e-01,1.497e-05
3.125e-01,1.842e-05
3.175e-01,2.259e-05
3.225e-01,2.762e-05
3.275e-01,3.366e-05
3.325e-01,4.089e-05
3.375e-01,4.952e-05
3.425e-01,5.979e-05
3.475e-01,7.200e-05
3.525e-01,8.645e-05
3.575e-01,1.035e-04
3.625e-01,1.237e-04
3.675e-01,1.473e-04
3.725e-01,1.751e-04
3.775e-01,2.075e-04
3.825e-01,2.455e-04
3.875e-01,2.896e-04
3.925e-01,3.410e-04
3.975e-01,4.006e-04
4.025e-01,4.696e-04
4.075e-01,5.493e-04
4.125e-01,6.413e-04
4.175e-01,7.471e-04
4.225e-01,8.688e-04
4.275e-01,1.008e-03
4.325e-01,1.168e-03
4.375e-01,1.351e-03
4.425e-01,1.559e-03
4.475e-01,1.796e-03
4.525e-01,2.066e-03
4.575e-01,2.373e-03
4.625e-01,2.721e-03
4.675e-01,3.114e-03
4.725e-01,3.559e-03
4.775e-01,4.061e-03
4.825e-01,4.627e-03
4.875e-01,5.265e-03
4.925e-01,5.981e-03
4.975e-01,6.784e-03
5.025e-01,7.685e-03
5.075e-01,8.694e-03
5.125e-01,9.822e-03
5.175e-01,1.108e-02
5.225e-01,1.248e-02
5.275e-01,1.405e-02
5.325e-01,1.579e-02
5.375e-01,1.772e-02
5.425e-01,1.987e-02
5.475e-01,2.225e-02
5.525e-01,2.488e-02
5.575e-01,2.779e-02
5.625e-01,3.101e-02
5.675e-01,3.456e-02
5.725e-01,3.847e-02
5.775e-01,4.278e-02
5.825e-01,4.752e-02
5.875e-01,5.273e-02
5.925e-01,5.845e-02
5.975e-01,6.472e-02
6.025e-01,7.159e-02
6.075e-01,7.911e-02
6.125e-01,8.733e-02
6.175e-01,9.630e-02
6.225e-01,1.061e-01
6.275e-01,1.168e-01
6.325e-01,1.284e-01
6.375e-01,1.410e-01
6.425e-01,1.548e-01
6.475e-01,1.697e-01
6.525e-01,1.859e-01
6.575e-01,2.034e-01
6.625e-01,2.224e-01
6.675e-01,2.429e-01
6.725e-01,2.651e-01
6.775e-01,2.891e-01
6.825e-01,3.149e-01
6.875e-01,3.428e-01
6.925e-01,3.728e-01
6.975e-01,4.050e-01
7.025e-01,4.397e-01
7.075e-01,4.769e-01
7.125e-01,5.168e-01
7.175e-01,5.595e-01
7.225e-01,6.053e-01
7.275e-01,6.542e-01
7.325e-01,7.065e-01
7.375e-01,7.623e-01
7.425e-01,8.218e-01
7.475e-01,8.851e-01
7.525e-01,9.525e-01
7.575e-01,1.024e+00
7.625e-01,1.100e+00
7.675e-01,1.181e+00
7.725e-01,1.266e+00
7.775e-01,1.356e+00
7.825e-01,1.452e+00
7.875e-01,1.553e+00
7.925e-01,1.659e+00
7.975e-01,1.770e+00
8.025e-01,1.888e+00
8.075e-01,2.011e+00
8.125e-01,2.140e+00
8.175e-01,2.275e+00
8.225e-01,2.416e+00
8.275e-01,2.564e+00
8.325e-01,2.717e+00
8.375e-01,2.876e+00
8.425e-01,3.040e+00
8.475e-01,3.211e+00
8.525e-01,3.386e+00
8.575e-01,3.567e+00
8.625e-01,3.752e+00
8.675e-01,3.942e+00
8.725e-01,4.134e+00
8.775e-01,4.330e+00
8.825e-01,4.527e+00
8.875e-01,4.724e+00
8.925e-01,4.922e+00
8.975e-01,5.117e+00
9.025e-01,5.308e+00
9.075e-01,5.494e+00
9.125e-01,5.672e+00
9.175e-01,5.840e+00
9.225e-01,5.994e+00
9.275e-01,6.130e+00
9.325e-01,6.246e+00
9.375e-01,6.336e+00
9.425e-01,6.395e+00
9.475e-01,6.416e+00
9.525e-01,6.392e+00
9.575e-01,6.314e+00
9.625e-01,6.172e+00
9.675e-01,5.952e+00
9.725e-01,5.638e+00
9.775e-01,5.209e+00
9.825e-01,4.636e+00
9.875e-01,3.876e+00
9.925e-01,2.851e+00
9.975e-01,1.364e+00
