transmittance,probability_density
2.046e-01,2.375e-28
2.086e-01,5.810e-28
2.126e-01,1.397e-27
2.166e-01,3.303e-27
2.206e-01,7.689e-27
2.246e-01,1.762e-26
2.286e-01,3.980e-26
2.325e-01,8.859e-26
2.365e-01,1.945e-25
2.405e-01,4.213e-25
2.445e-01,9.010e-25
2.485e-01,1.903e-24
2.525e-01,3.969e-24
2.565e-01,8.185e-24
2.604e-01,1.668e-23
2.644e-01,3.364e-23
2.684e-01,6.710e-23
2.724e-01,1.324e-22
2.764e-01,2.588e-22
2.804e-01,5.008e-22
2.844e-01,9.599e-22
2.884e-01,1.823e-21
2.923e-01,3.430e-21
2.963e-01,6.398e-21
3.003e-01,1.183e-20
3.043e-01,2.170e-20
3.083e-01,3.949e-20
3.123e-01,7.127e-20
3.163e-01,1.276e-19
3.202e-01,2.269e-19
3.242e-01,4.004e-19
3.282e-01,7.015e-19
3.322e-01,1.220e-18
3.362e-01,2.109e-18
3.402e-01,3.620e-18
3.442e-01,6.173e-18
3.482e-01,1.046e-17
3.521e-01,1.762e-17
3.561e-01,2.948e-17
3.601e-01,4.905e-17
3.641e-01,8.114e-17
3.681e-01,1.335e-16
3.721e-01,2.183e-16
3.761e-01,3.550e-16
3.800e-01,5.744e-16
3.840e-01,9.245e-16
3.880e-01,1.480e-15
3.920e-01,2.358e-15
3.960e-01,3.739e-15
4.000e-01,5.898e-15
4.040e-01,9.261e-15
4.080e-01,1.447e-14
4.119e-01,2.252e-14
4.159e-01,3.487e-14
4.199e-01,5.377e-14
4.239e-01,8.255e-14
4.279e-01,1.262e-13
4.319e-01,1.921e-13
4.359e-01,2.913e-13
4.399e-01,4.399e-13
4.438e-01,6.616e-13
4.478e-01,9.913e-13
4.518e-01,1.479e-12
4.558e-01,2.200e-12
4.598e-01,3.259e-12
4.638e-01,4.810e-12
4.678e-01,7.075e-12
4.717e-01,1.037e-11
4.757e-01,1.514e-11
4.797e-01,2.204e-11
4.837e-01,3.197e-11
4.877e-01,4.623e-11
4.917e-01,6.662e-11
4.957e-01,9.571e-11
4.997e-01,1.370e-10
5.036e-01,1.956e-10
5.076e-01,2.784e-10
5.116e-01,3.950e-10
5.156e-01,5.588e-10
5.196e-01,7.881e-10
5.236e-01,1.108e-09
5.276e-01,1.554e-09
5.315e-01,2.173e-09
5.355e-01,3.031e-09
5.395e-01,4.214e-09
5.435e-01,5.845e-09
5.475e-01,8.084e-09
5.515e-01,1.115e-08
5.555e-01,1.534e-08
5.595e-01,2.105e-08
5.634e-01,2.882e-08
5.674e-01,3.935e-08
5.714e-01,5.359e-08
5.754e-01,7.280e-08
5.794e-01,9.867e-08
5.834e-01,1.334e-07
5.874e-01,1.799e-07
5.914e-01,2.421e-07
5.953e-01,3.250e-07
5.993e-01,4.353e-07
6.033e-01,5.818e-07
6.073e-01,7.757e-07
6.113e-01,1.032e-06
6.153e-01,1.370e-06
6.193e-01,1.814e-06
6.232e-01,2.398e-06
6.272e-01,3.162e-06
6.312e-01,4.161e-06
6.352e-01,5.464e-06
6.392e-01,7.159e-06
6.432e-01,9.362e-06
6.472e-01,1.222e-05
6.512e-01,1.591e-05
6.551e-01,2.068e-05
6.591e-01,2.682e-05
6.631e-01,3.472e-05
6.671e-01,4.485e-05
6.711e-01,5.783e-05
6.751e-01,7.441e-05
6.791e-01,9.556e-05
6.830e-01,1.225e-04
6.870e-01,1.567e-04
6.910e-01,2.001e-04
6.950e-01,2.550e-04
6.990e-01,3.244e-04
7.030e-01,4.118e-04
7.070e-01,5.218e-04
7.110e-01,6.600e-04
7.149e-01,8.332e-04
7.189e-01,1.050e-03
7.229e-01,1.320e-03
7.269e-01,1.658e-03
7.309e-01,2.077e-03
7.349e-01,2.598e-03
7.389e-01,3.243e-03
7.429e-01,4.042e-03
7.468e-01,5.027e-03
7.508e-01,6.241e-03
7.548e-01,7.733e-03
7.588e-01,9.565e-03
7.628e-01,1.181e-02
7.668e-01,1.455e-02
7.708e-01,1.789e-02
7.747e-01,2.197e-02
7.787e-01,2.692e-02
7.827e-01,3.292e-02
7.867e-01,4.017e-02
7.907e-01,4.894e-02
7.947e-01,5.950e-02
7.987e-01,7.220e-02
8.027e-01,8.743e-02
8.066e-01,1.057e-01
8.106e-01,1.274e-01
8.146e-01,1.534e-01
8.186e-01,1.842e-01
8.226e-01,2.208e-01
8.266e-01,2.641e-01
8.306e-01,3.151e-01
8.345e-01,3.752e-01
8.385e-01,4.456e-01
8.425e-01,5.281e-01
8.465e-01,6.244e-01
8.505e-01,7.364e-01
8.545e-01,8.662e-01
8.585e-01,1.016e+00
8.625e-01,1.189e+00
8.664e-01,1.388e+00
8.704e-01,1.615e+00
8.744e-01,1.873e+00
8.784e-01,2.167e+00
8.824e-01,2.498e+00
8.864e-01,2.870e+00
8.904e-01,3.285e+00
8.943e-01,3.747e+00
8.983e-01,4.257e+00
9.023e-01,4.817e+00
9.063e-01,5.425e+00
9.103e-01,6.082e+00
9.143e-01,6.784e+00
9.183e-01,7.526e+00
9.223e-01,8.300e+00
9.262e-01,9.095e+00
9.302e-01,9.896e+00
9.342e-01,1.068e+01
9.382e-01,1.144e+01
9.422e-01,1.213e+01
9.462e-01,1.272e+01
9.502e-01,1.317e+01
9.542e-01,1.345e+01
9.581e-01,1.350e+01
9.621e-01,1.329e+01
9.661e-01,1.276e+01
9.701e-01,1.189e+01
9.741e-01,1.066e+01
9.781e-01,9.085e+00
9.821e-01,7.205e+00
9.860e-01,5.132e+00
9.900e-01,3.053e+00
9.940e-01,1.257e+00
9.980e-01,1.499e-01
