transmittance,probability_density
1.061e-03,5.898e-21
3.184e-03,7.565e-15
5.306e-03,4.796e-12
7.429e-03,3.064e-10
9.551e-03,6.332e-09
1.167e-02,6.686e-08
1.380e-02,4.527e-07
1.592e-02,2.237e-06
1.804e-02,8.754e-06
2.016e-02,2.861e-05
2.229e-02,8.110e-05
2.441e-02,2.048e-04
2.653e-02,4.704e-04
2.865e-02,9.973e-04
3.078e-02,1.975e-03
3.290e-02,3.689e-03
3.502e-02,6.547e-03
3.714e-02,1.111e-02
3.927e-02,1.810e-02
4.139e-02,2.847e-02
4.351e-02,4.337e-02
4.563e-02,6.416e-02
4.776e-02,9.245e-02
4.988e-02,1.300e-01
5.200e-02,1.789e-01
5.412e-02,2.411e-01
5.624e-02,3.189e-01
5.837e-02,4.146e-01
6.049e-02,5.302e-01
6.261e-02,6.680e-01
6.473e-02,8.297e-01
6.686e-02,1.017e+00
6.898e-02,1.231e+00
7.110e-02,1.474e+00
7.322e-02,1.744e+00
7.535e-02,2.043e+00
7.747e-02,2.370e+00
7.959e-02,2.723e+00
8.171e-02,3.102e+00
8.384e-02,3.504e+00
8.596e-02,3.927e+00
8.808e-02,4.368e+00
9.020e-02,4.822e+00
9.233e-02,5.288e+00
9.445e-02,5.760e+00
9.657e-02,6.234e+00
9.869e-02,6.707e+00
1.008e-01,7.173e+00
1.029e-01,7.629e+00
1.051e-01,8.070e+00
1.072e-01,8.493e+00
1.093e-01,8.893e+00
1.114e-01,9.267e+00
1.136e-01,9.611e+00
1.157e-01,9.924e+00
1.178e-01,1.020e+01
1.199e-01,1.044e+01
1.220e-01,1.065e+01
1.242e-01,1.081e+01
1.263e-01,1.094e+01
1.284e-01,1.102e+01
1.305e-01,1.107e+01
1.327e-01,1.108e+01
1.348e-01,1.105e+01
1.369e-01,1.098e+01
1.390e-01,1.088e+01
1.411e-01,1.075e+01
1.433e-01,1.058e+01
1.454e-01,1.039e+01
1.475e-01,1.017e+01
1.496e-01,9.921e+00
1.518e-01,9.656e+00
1.539e-01,9.372e+00
1.560e-01,9.072e+00
1.581e-01,8.759e+00
1.602e-01,8.435e+00
1.624e-01,8.103e+00
1.645e-01,7.764e+00
1.666e-01,7.422e+00
1.687e-01,7.079e+00
1.709e-01,6.736e+00
1.730e-01,6.394e+00
1.751e-01,6.057e+00
1.772e-01,5.725e+00
1.793e-01,5.399e+00
1.815e-01,5.081e+00
1.836e-01,4.772e+00
1.857e-01,4.473e+00
1.878e-01,4.184e+00
1.900e-01,3.906e+00
1.921e-01,3.639e+00
1.942e-01,3.384e+00
1.963e-01,3.141e+00
1.984e-01,2.910e+00
2.006e-01,2.691e+00
2.027e-01,2.484e+00
2.048e-01,2.289e+00
2.069e-01,2.105e+00
2.091e-01,1.933e+00
2.112e-01,1.772e+00
2.133e-01,1.621e+00
2.154e-01,1.481e+00
2.176e-01,1.351e+00
2.197e-01,1.230e+00
2.218e-01,1.118e+00
2.239e-01,1.015e+00
2.260e-01,9.193e-01
2.282e-01,8.317e-01
2.303e-01,7.512e-01
2.324e-01,6.775e-01
2.345e-01,6.101e-01
2.367e-01,5.486e-01
2.388e-01,4.925e-01
2.409e-01,4.415e-01
2.430e-01,3.952e-01
2.451e-01,3.533e-01
2.473e-01,3.153e-01
2.494e-01,2.810e-01
2.515e-01,2.501e-01
2.536e-01,2.223e-01
2.558e-01,1.973e-01
2.579e-01,1.748e-01
2.600e-01,1.547e-01
2.621e-01,1.367e-01
2.642e-01,1.207e-01
2.664e-01,1.064e-01
2.685e-01,9.361e-02
2.706e-01,8.229e-02
2.727e-01,7.223e-02
2.749e-01,6.332e-02
2.770e-01,5.544e-02
2.791e-01,4.847e-02
2.812e-01,4.233e-02
2.833e-01,3.691e-02
2.855e-01,3.215e-02
2.876e-01,2.796e-02
2.897e-01,2.429e-02
2.918e-01,2.107e-02
2.940e-01,1.826e-02
2.961e-01,1.580e-02
2.982e-01,1.365e-02
3.003e-01,1.179e-02
3.024e-01,1.016e-02
3.046e-01,8.748e-03
3.067e-01,7.523e-03
3.088e-01,6.461e-03
3.109e-01,5.542e-03
3.131e-01,4.748e-03
3.152e-01,4.062e-03
3.173e-01,3.472e-03
3.194e-01,2.963e-03
3.216e-01,2.526e-03
3.237e-01,2.151e-03
3.258e-01,1.829e-03
3.279e-01,1.553e-03
3.300e-01,1.318e-03
3.322e-01,1.116e-03
3.343e-01,9.447e-04
3.364e-01,7.985e-04
3.385e-01,6.740e-04
3.407e-01,5.683e-04
3.428e-01,4.786e-04
3.449e-01,4.025e-04
3.470e-01,3.381e-04
3.491e-01,2.837e-04
3.513e-01,2.377e-04
3.534e-01,1.990e-04
3.555e-01,1.663e-04
3.576e-01,1.389e-04
3.598e-01,1.158e-04
3.619e-01,9.645e-05
3.640e-01,8.024e-05
3.661e-01,6.667e-05
3.682e-01,5.532e-05
3.704e-01,4.585e-05
3.725e-01,3.796e-05
3.746e-01,3.138e-05
3.767e-01,2.591e-05
3.789e-01,2.137e-05
3.810e-01,1.761e-05
3.831e-01,1.448e-05
3.852e-01,1.190e-05
3.873e-01,9.768e-06
3.895e-01,8.006e-06
3.916e-01,6.554e-06
3.937e-01,5.359e-06
3.958e-01,4.376e-06
3.980e-01,3.569e-06
4.001e-01,2.907e-06
4.022e-01,2.365e-06
4.043e-01,1.922e-06
4.064e-01,1.559e-06
4.086e-01,1.264e-06
4.107e-01,1.023e-06
4.128e-01,8.269e-07
4.149e-01,6.676e-07
4.171e-01,5.382e-07
4.192e-01,4.334e-07
4.213e-01,3.486e-07
4.234e-01,2.800e-07
