transmittance,probability_density
8.344e-04,4.144e-19
2.503e-03,2.043e-13
4.172e-03,8.063e-11
5.840e-03,3.796e-09
7.509e-03,6.316e-08
9.178e-03,5.661e-07
1.085e-02,3.368e-06
1.252e-02,1.497e-05
1.418e-02,5.353e-05
1.585e-02,1.618e-04
1.752e-02,4.276e-04
1.919e-02,1.013e-03
2.086e-02,2.194e-03
2.253e-02,4.402e-03
2.420e-02,8.276e-03
2.586e-02,1.471e-02
2.753e-02,2.490e-02
2.920e-02,4.037e-02
3.087e-02,6.302e-02
3.254e-02,9.508e-02
3.421e-02,1.391e-01
3.588e-02,1.981e-01
3.755e-02,2.750e-01
3.921e-02,3.732e-01
4.088e-02,4.961e-01
4.255e-02,6.469e-01
4.422e-02,8.286e-01
4.589e-02,1.044e+00
4.756e-02,1.296e+00
4.923e-02,1.586e+00
5.090e-02,1.915e+00
5.256e-02,2.284e+00
5.423e-02,2.693e+00
5.590e-02,3.141e+00
5.757e-02,3.626e+00
5.924e-02,4.145e+00
6.091e-02,4.695e+00
6.258e-02,5.272e+00
6.424e-02,5.872e+00
6.591e-02,6.489e+00
6.758e-02,7.117e+00
6.925e-02,7.752e+00
7.092e-02,8.385e+00
7.259e-02,9.013e+00
7.426e-02,9.627e+00
7.593e-02,1.022e+01
7.759e-02,1.079e+01
7.926e-02,1.134e+01
8.093e-02,1.184e+01
8.260e-02,1.231e+01
8.427e-02,1.273e+01
8.594e-02,1.311e+01
8.761e-02,1.344e+01
8.928e-02,1.372e+01
9.094e-02,1.394e+01
9.261e-02,1.411e+01
9.428e-02,1.423e+01
9.595e-02,1.430e+01
9.762e-02,1.431e+01
9.929e-02,1.427e+01
1.010e-01,1.418e+01
1.026e-01,1.405e+01
1.043e-01,1.387e+01
1.060e-01,1.365e+01
1.076e-01,1.340e+01
1.093e-01,1.311e+01
1.110e-01,1.279e+01
1.126e-01,1.244e+01
1.143e-01,1.206e+01
1.160e-01,1.167e+01
1.176e-01,1.126e+01
1.193e-01,1.084e+01
1.210e-01,1.041e+01
1.226e-01,9.969e+00
1.243e-01,9.525e+00
1.260e-01,9.080e+00
1.277e-01,8.636e+00
1.293e-01,8.195e+00
1.310e-01,7.760e+00
1.327e-01,7.333e+00
1.343e-01,6.914e+00
1.360e-01,6.506e+00
1.377e-01,6.110e+00
1.393e-01,5.726e+00
1.410e-01,5.357e+00
1.427e-01,5.001e+00
1.443e-01,4.661e+00
1.460e-01,4.336e+00
1.477e-01,4.026e+00
1.493e-01,3.731e+00
1.510e-01,3.453e+00
1.527e-01,3.189e+00
1.544e-01,2.941e+00
1.560e-01,2.708e+00
1.577e-01,2.489e+00
1.594e-01,2.284e+00
1.610e-01,2.092e+00
1.627e-01,1.914e+00
1.644e-01,1.748e+00
1.660e-01,1.594e+00
1.677e-01,1.452e+00
1.694e-01,1.320e+00
1.710e-01,1.199e+00
1.727e-01,1.087e+00
1.744e-01,9.838e-01
1.760e-01,8.894e-01
1.777e-01,8.030e-01
1.794e-01,7.240e-01
1.811e-01,6.519e-01
1.827e-01,5.862e-01
1.844e-01,5.264e-01
1.861e-01,4.721e-01
1.877e-01,4.229e-01
1.894e-01,3.783e-01
1.911e-01,3.379e-01
1.927e-01,3.015e-01
1.944e-01,2.687e-01
1.961e-01,2.392e-01
1.977e-01,2.127e-01
1.994e-01,1.888e-01
2.011e-01,1.675e-01
2.027e-01,1.483e-01
2.044e-01,1.313e-01
2.061e-01,1.160e-01
2.078e-01,1.024e-01
2.094e-01,9.030e-02
2.111e-01,7.953e-02
2.128e-01,6.997e-02
2.144e-01,6.149e-02
2.161e-01,5.397e-02
2.178e-01,4.733e-02
2.194e-01,4.146e-02
2.211e-01,3.627e-02
2.228e-01,3.170e-02
2.244e-01,2.768e-02
2.261e-01,2.414e-02
2.278e-01,2.103e-02
2.294e-01,1.830e-02
2.311e-01,1.591e-02
2.328e-01,1.382e-02
2.345e-01,1.199e-02
2.361e-01,1.039e-02
2.378e-01,9.000e-03
2.395e-01,7.785e-03
2.411e-01,6.727e-03
2.428e-01,5.807e-03
2.445e-01,5.008e-03
2.461e-01,4.315e-03
2.478e-01,3.714e-03
2.495e-01,3.193e-03
2.511e-01,2.743e-03
2.528e-01,2.354e-03
2.545e-01,2.018e-03
2.561e-01,1.729e-03
2.578e-01,1.479e-03
2.595e-01,1.265e-03
2.612e-01,1.080e-03
2.628e-01,9.215e-04
2.645e-01,7.855e-04
2.662e-01,6.690e-04
2.678e-01,5.692e-04
2.695e-01,4.838e-04
2.712e-01,4.109e-04
2.728e-01,3.486e-04
2.745e-01,2.955e-04
2.762e-01,2.503e-04
2.778e-01,2.117e-04
2.795e-01,1.790e-04
2.812e-01,1.512e-04
2.828e-01,1.275e-04
2.845e-01,1.075e-04
2.862e-01,9.055e-05
2.879e-01,7.619e-05
2.895e-01,6.405e-05
2.912e-01,5.380e-05
2.929e-01,4.514e-05
2.945e-01,3.785e-05
2.962e-01,3.170e-05
2.979e-01,2.653e-05
2.995e-01,2.218e-05
3.012e-01,1.853e-05
3.029e-01,1.547e-05
3.045e-01,1.290e-05
3.062e-01,1.074e-05
3.079e-01,8.942e-06
3.095e-01,7.436e-06
3.112e-01,6.179e-06
3.129e-01,5.129e-06
3.145e-01,4.254e-06
3.162e-01,3.525e-06
3.179e-01,2.918e-06
3.196e-01,2.414e-06
3.212e-01,1.995e-06
3.229e-01,1.647e-06
3.246e-01,1.359e-06
3.262e-01,1.120e-06
3.279e-01,9.220e-07
3.296e-01,7.585e-07
3.312e-01,6.235e-07
3.329e-01,5.120e-07
