transmittance,probability_density
1.504e-01,6.295e-08
1.547e-01,1.183e-07
1.589e-01,2.172e-07
1.632e-01,3.903e-07
1.674e-01,6.867e-07
1.717e-01,1.184e-06
1.760e-01,2.002e-06
1.802e-01,3.321e-06
1.845e-01,5.412e-06
1.887e-01,8.668e-06
1.930e-01,1.365e-05
1.972e-01,2.117e-05
2.015e-01,3.233e-05
2.058e-01,4.866e-05
2.100e-01,7.222e-05
2.143e-01,1.058e-04
2.185e-01,1.529e-04
2.228e-01,2.185e-04
2.271e-01,3.084e-04
2.313e-01,4.307e-04
2.356e-01,5.950e-04
2.398e-01,8.137e-04
2.441e-01,1.102e-03
2.484e-01,1.479e-03
2.526e-01,1.966e-03
2.569e-01,2.593e-03
2.611e-01,3.391e-03
2.654e-01,4.400e-03
2.696e-01,5.667e-03
2.739e-01,7.247e-03
2.782e-01,9.202e-03
2.824e-01,1.161e-02
2.867e-01,1.455e-02
2.909e-01,1.812e-02
2.952e-01,2.243e-02
2.995e-01,2.760e-02
3.037e-01,3.378e-02
3.080e-01,4.111e-02
3.122e-01,4.977e-02
3.165e-01,5.994e-02
3.207e-01,7.182e-02
3.250e-01,8.564e-02
3.293e-01,1.016e-01
3.335e-01,1.200e-01
3.378e-01,1.411e-01
3.420e-01,1.652e-01
3.463e-01,1.925e-01
3.506e-01,2.234e-01
3.548e-01,2.581e-01
3.591e-01,2.970e-01
3.633e-01,3.404e-01
3.676e-01,3.886e-01
3.719e-01,4.418e-01
3.761e-01,5.005e-01
3.804e-01,5.648e-01
3.846e-01,6.350e-01
3.889e-01,7.113e-01
3.931e-01,7.939e-01
3.974e-01,8.829e-01
4.017e-01,9.785e-01
4.059e-01,1.081e+00
4.102e-01,1.190e+00
4.144e-01,1.305e+00
4.187e-01,1.427e+00
4.230e-01,1.555e+00
4.272e-01,1.690e+00
4.315e-01,1.830e+00
4.357e-01,1.975e+00
4.400e-01,2.125e+00
4.442e-01,2.280e+00
4.485e-01,2.438e+00
4.528e-01,2.600e+00
4.570e-01,2.763e+00
4.613e-01,2.928e+00
4.655e-01,3.094e+00
4.698e-01,3.260e+00
4.741e-01,3.424e+00
4.783e-01,3.586e+00
4.826e-01,3.745e+00
4.868e-01,3.900e+00
4.911e-01,4.049e+00
4.954e-01,4.192e+00
4.996e-01,4.328e+00
5.039e-01,4.456e+00
5.081e-01,4.574e+00
5.124e-01,4.682e+00
5.166e-01,4.779e+00
5.209e-01,4.864e+00
5.252e-01,4.937e+00
5.294e-01,4.996e+00
5.337e-01,5.043e+00
5.379e-01,5.075e+00
5.422e-01,5.093e+00
5.465e-01,5.096e+00
5.507e-01,5.085e+00
5.550e-01,5.060e+00
5.592e-01,5.020e+00
5.635e-01,4.967e+00
5.677e-01,4.900e+00
5.720e-01,4.819e+00
5.763e-01,4.727e+00
5.805e-01,4.622e+00
5.848e-01,4.507e+00
5.890e-01,4.381e+00
5.933e-01,4.247e+00
5.976e-01,4.104e+00
6.018e-01,3.953e+00
6.061e-01,3.797e+00
6.103e-01,3.636e+00
6.146e-01,3.471e+00
6.189e-01,3.302e+00
6.231e-01,3.132e+00
6.274e-01,2.962e+00
6.316e-01,2.791e+00
6.359e-01,2.622e+00
6.401e-01,2.455e+00
6.444e-01,2.290e+00
6.487e-01,2.130e+00
6.529e-01,1.973e+00
6.572e-01,1.822e+00
6.614e-01,1.677e+00
6.657e-01,1.537e+00
6.700e-01,1.404e+00
6.742e-01,1.278e+00
6.785e-01,1.158e+00
6.827e-01,1.046e+00
6.870e-01,9.406e-01
6.912e-01,8.426e-01
6.955e-01,7.517e-01
6.998e-01,6.678e-01
7.040e-01,5.908e-01
7.083e-01,5.203e-01
7.125e-01,4.562e-01
7.168e-01,3.982e-01
7.211e-01,3.460e-01
7.253e-01,2.991e-01
7.296e-01,2.574e-01
7.338e-01,2.203e-01
7.381e-01,1.876e-01
7.424e-01,1.589e-01
7.466e-01,1.339e-01
7.509e-01,1.122e-01
7.551e-01,9.347e-02
7.594e-01,7.740e-02
7.636e-01,6.371e-02
7.679e-01,5.211e-02
7.722e-01,4.234e-02
7.764e-01,3.418e-02
7.807e-01,2.740e-02
7.849e-01,2.180e-02
7.892e-01,1.722e-02
7.935e-01,1.350e-02
7.977e-01,1.050e-02
8.020e-01,8.096e-03
8.062e-01,6.190e-03
8.105e-01,4.690e-03
8.147e-01,3.521e-03
8.190e-01,2.617e-03
8.233e-01,1.926e-03
8.275e-01,1.402e-03
8.318e-01,1.009e-03
8.360e-01,7.182e-04
8.403e-01,5.049e-04
8.446e-01,3.503e-04
8.488e-01,2.398e-04
8.531e-01,1.618e-04
8.573e-01,1.075e-04
8.616e-01,7.035e-05
8.659e-01,4.524e-05
8.701e-01,2.857e-05
8.744e-01,1.771e-05
8.786e-01,1.075e-05
8.829e-01,6.384e-06
8.871e-01,3.703e-06
8.914e-01,2.095e-06
8.957e-01,1.153e-06
8.999e-01,6.165e-07
9.042e-01,3.192e-07
9.084e-01,1.596e-07
9.127e-01,7.685e-08
9.170e-01,3.548e-08
9.212e-01,1.564e-08
9.255e-01,6.553e-09
9.297e-01,2.593e-09
9.340e-01,9.619e-10
9.382e-01,3.318e-10
9.425e-01,1.054e-10
9.468e-01,3.040e-11
9.510e-01,7.844e-12
9.553e-01,1.774e-12
9.595e-01,3.425e-13
9.638e-01,5.452e-14
9.681e-01,6.816e-15
9.723e-01,6.246e-16
9.766e-01,3.782e-17
9.808e-01,1.280e-18
9.851e-01,1.807e-20
9.894e-01,5.863e-23
9.936e-01,9.403e-27
9.979e-01,6.040e-35
