transmittance,probability_density
2.456e-01,2.527e-08
2.494e-01,4.014e-08
2.532e-01,6.321e-08
2.570e-01,9.869e-08
2.607e-01,1.528e-07
2.645e-01,2.344e-07
2.683e-01,3.565e-07
2.721e-01,5.376e-07
2.759e-01,8.037e-07
2.797e-01,1.191e-06
2.834e-01,1.750e-06
2.872e-01,2.551e-06
2.910e-01,3.686e-06
2.948e-01,5.282e-06
2.986e-01,7.508e-06
3.023e-01,1.059e-05
3.061e-01,1.482e-05
3.099e-01,2.057e-05
3.137e-01,2.835e-05
3.175e-01,3.879e-05
3.212e-01,5.269e-05
3.250e-01,7.106e-05
3.288e-01,9.519e-05
3.326e-01,1.267e-04
3.364e-01,1.675e-04
3.402e-01,2.200e-04
3.439e-01,2.872e-04
3.477e-01,3.728e-04
3.515e-01,4.810e-04
3.553e-01,6.171e-04
3.591e-01,7.875e-04
3.628e-01,9.995e-04
3.666e-01,1.262e-03
3.704e-01,1.586e-03
3.742e-01,1.983e-03
3.780e-01,2.468e-03
3.817e-01,3.057e-03
3.855e-01,3.770e-03
3.893e-01,4.629e-03
3.931e-01,5.661e-03
3.969e-01,6.894e-03
4.007e-01,8.363e-03
4.044e-01,1.011e-02
4.082e-01,1.216e-02
4.120e-01,1.459e-02
4.158e-01,1.744e-02
4.196e-01,2.077e-02
4.233e-01,2.464e-02
4.271e-01,2.915e-02
4.309e-01,3.437e-02
4.347e-01,4.039e-02
4.385e-01,4.732e-02
4.422e-01,5.526e-02
4.460e-01,6.433e-02
4.498e-01,7.467e-02
4.536e-01,8.642e-02
4.574e-01,9.973e-02
4.612e-01,1.147e-01
4.649e-01,1.317e-01
4.687e-01,1.506e-01
4.725e-01,1.719e-01
4.763e-01,1.956e-01
4.801e-01,2.219e-01
4.838e-01,2.512e-01
4.876e-01,2.835e-01
4.914e-01,3.191e-01
4.952e-01,3.584e-01
4.990e-01,4.013e-01
5.028e-01,4.483e-01
5.065e-01,4.996e-01
5.103e-01,5.553e-01
5.141e-01,6.156e-01
5.179e-01,6.808e-01
5.217e-01,7.511e-01
5.254e-01,8.267e-01
5.292e-01,9.076e-01
5.330e-01,9.940e-01
5.368e-01,1.086e+00
5.406e-01,1.184e+00
5.443e-01,1.287e+00
5.481e-01,1.397e+00
5.519e-01,1.512e+00
5.557e-01,1.632e+00
5.595e-01,1.758e+00
5.633e-01,1.890e+00
5.670e-01,2.026e+00
5.708e-01,2.168e+00
5.746e-01,2.313e+00
5.784e-01,2.463e+00
5.822e-01,2.617e+00
5.859e-01,2.774e+00
5.897e-01,2.933e+00
5.935e-01,3.095e+00
5.973e-01,3.258e+00
6.011e-01,3.421e+00
6.048e-01,3.584e+00
6.086e-01,3.747e+00
6.124e-01,3.907e+00
6.162e-01,4.065e+00
6.200e-01,4.220e+00
6.238e-01,4.370e+00
6.275e-01,4.515e+00
6.313e-01,4.653e+00
6.351e-01,4.784e+00
6.389e-01,4.907e+00
6.427e-01,5.021e+00
6.464e-01,5.126e+00
6.502e-01,5.219e+00
6.540e-01,5.301e+00
6.578e-01,5.371e+00
6.616e-01,5.429e+00
6.653e-01,5.473e+00
6.691e-01,5.503e+00
6.729e-01,5.519e+00
6.767e-01,5.521e+00
6.805e-01,5.508e+00
6.843e-01,5.480e+00
6.880e-01,5.438e+00
6.918e-01,5.381e+00
6.956e-01,5.310e+00
6.994e-01,5.226e+00
7.032e-01,5.128e+00
7.069e-01,5.017e+00
7.107e-01,4.894e+00
7.145e-01,4.760e+00
7.183e-01,4.616e+00
7.221e-01,4.462e+00
7.259e-01,4.300e+00
7.296e-01,4.130e+00
7.334e-01,3.954e+00
7.372e-01,3.773e+00
7.410e-01,3.588e+00
7.448e-01,3.401e+00
7.485e-01,3.211e+00
7.523e-01,3.022e+00
7.561e-01,2.833e+00
7.599e-01,2.646e+00
7.637e-01,2.461e+00
7.674e-01,2.281e+00
7.712e-01,2.105e+00
7.750e-01,1.934e+00
7.788e-01,1.770e+00
7.826e-01,1.612e+00
7.864e-01,1.462e+00
7.901e-01,1.320e+00
7.939e-01,1.186e+00
7.977e-01,1.060e+00
8.015e-01,9.426e-01
8.053e-01,8.338e-01
8.090e-01,7.336e-01
8.128e-01,6.418e-01
8.166e-01,5.582e-01
8.204e-01,4.825e-01
8.242e-01,4.145e-01
8.279e-01,3.538e-01
8.317e-01,2.999e-01
8.355e-01,2.524e-01
8.393e-01,2.109e-01
8.431e-01,1.749e-01
8.469e-01,1.438e-01
8.506e-01,1.173e-01
8.544e-01,9.483e-02
8.582e-01,7.596e-02
8.620e-01,6.026e-02
8.658e-01,4.732e-02
8.695e-01,3.676e-02
8.733e-01,2.823e-02
8.771e-01,2.143e-02
8.809e-01,1.606e-02
8.847e-01,1.187e-02
8.884e-01,8.650e-03
8.922e-01,6.208e-03
8.960e-01,4.383e-03
8.998e-01,3.041e-03
9.036e-01,2.071e-03
9.074e-01,1.381e-03
9.111e-01,9.017e-04
9.149e-01,5.747e-04
9.187e-01,3.569e-04
9.225e-01,2.155e-04
9.263e-01,1.261e-04
9.300e-01,7.131e-05
9.338e-01,3.882e-05
9.376e-01,2.025e-05
9.414e-01,1.007e-05
9.452e-01,4.747e-06
9.490e-01,2.103e-06
9.527e-01,8.678e-07
9.565e-01,3.296e-07
9.603e-01,1.135e-07
9.641e-01,3.478e-08
9.679e-01,9.231e-09
9.716e-01,2.048e-09
9.754e-01,3.611e-10
9.792e-01,4.682e-11
9.830e-01,3.947e-12
9.868e-01,1.741e-13
9.905e-01,2.585e-15
9.943e-01,4.145e-18
9.981e-01,3.715e-24
