transmittance,probability_density
3.226e-01,3.427e-08
3.260e-01,5.150e-08
3.294e-01,7.688e-08
3.328e-01,1.140e-07
3.362e-01,1.678e-07
3.396e-01,2.452e-07
3.430e-01,3.559e-07
3.464e-01,5.127e-07
3.498e-01,7.333e-07
3.532e-01,1.041e-06
3.566e-01,1.468e-06
3.600e-01,2.054e-06
3.634e-01,2.855e-06
3.667e-01,3.939e-06
3.701e-01,5.396e-06
3.735e-01,7.342e-06
3.769e-01,9.921e-06
3.803e-01,1.332e-05
3.837e-01,1.775e-05
3.871e-01,2.352e-05
3.905e-01,3.096e-05
3.939e-01,4.049e-05
3.973e-01,5.264e-05
4.007e-01,6.803e-05
4.041e-01,8.742e-05
4.075e-01,1.117e-04
4.109e-01,1.419e-04
4.143e-01,1.794e-04
4.177e-01,2.256e-04
4.211e-01,2.823e-04
4.245e-01,3.515e-04
4.279e-01,4.358e-04
4.313e-01,5.378e-04
4.347e-01,6.610e-04
4.381e-01,8.091e-04
4.414e-01,9.867e-04
4.448e-01,1.199e-03
4.482e-01,1.451e-03
4.516e-01,1.751e-03
4.550e-01,2.107e-03
4.584e-01,2.526e-03
4.618e-01,3.021e-03
4.652e-01,3.603e-03
4.686e-01,4.286e-03
4.720e-01,5.087e-03
4.754e-01,6.022e-03
4.788e-01,7.113e-03
4.822e-01,8.383e-03
4.856e-01,9.859e-03
4.890e-01,1.157e-02
4.924e-01,1.355e-02
4.958e-01,1.584e-02
4.992e-01,1.848e-02
5.026e-01,2.152e-02
5.060e-01,2.501e-02
5.094e-01,2.902e-02
5.128e-01,3.359e-02
5.161e-01,3.882e-02
5.195e-01,4.477e-02
5.229e-01,5.153e-02
5.263e-01,5.919e-02
5.297e-01,6.787e-02
5.331e-01,7.766e-02
5.365e-01,8.869e-02
5.399e-01,1.011e-01
5.433e-01,1.150e-01
5.467e-01,1.305e-01
5.501e-01,1.479e-01
5.535e-01,1.672e-01
5.569e-01,1.886e-01
5.603e-01,2.124e-01
5.637e-01,2.386e-01
5.671e-01,2.676e-01
5.705e-01,2.995e-01
5.739e-01,3.345e-01
5.773e-01,3.728e-01
5.807e-01,4.147e-01
5.841e-01,4.604e-01
5.875e-01,5.101e-01
5.908e-01,5.640e-01
5.942e-01,6.223e-01
5.976e-01,6.853e-01
6.010e-01,7.531e-01
6.044e-01,8.260e-01
6.078e-01,9.042e-01
6.112e-01,9.877e-01
6.146e-01,1.077e+00
6.180e-01,1.172e+00
6.214e-01,1.272e+00
6.248e-01,1.379e+00
6.282e-01,1.491e+00
6.316e-01,1.610e+00
6.350e-01,1.734e+00
6.384e-01,1.864e+00
6.418e-01,2.000e+00
6.452e-01,2.142e+00
6.486e-01,2.289e+00
6.520e-01,2.441e+00
6.554e-01,2.598e+00
6.588e-01,2.760e+00
6.622e-01,2.926e+00
6.655e-01,3.095e+00
6.689e-01,3.267e+00
6.723e-01,3.442e+00
6.757e-01,3.618e+00
6.791e-01,3.795e+00
6.825e-01,3.973e+00
6.859e-01,4.151e+00
6.893e-01,4.326e+00
6.927e-01,4.500e+00
6.961e-01,4.671e+00
6.995e-01,4.837e+00
7.029e-01,4.998e+00
7.063e-01,5.153e+00
7.097e-01,5.300e+00
7.131e-01,5.440e+00
7.165e-01,5.570e+00
7.199e-01,5.690e+00
7.233e-01,5.798e+00
7.267e-01,5.895e+00
7.301e-01,5.978e+00
7.335e-01,6.048e+00
7.369e-01,6.104e+00
7.402e-01,6.144e+00
7.436e-01,6.168e+00
7.470e-01,6.177e+00
7.504e-01,6.168e+00
7.538e-01,6.144e+00
7.572e-01,6.102e+00
7.606e-01,6.044e+00
7.640e-01,5.969e+00
7.674e-01,5.877e+00
7.708e-01,5.770e+00
7.742e-01,5.648e+00
7.776e-01,5.511e+00
7.810e-01,5.360e+00
7.844e-01,5.196e+00
7.878e-01,5.021e+00
7.912e-01,4.835e+00
7.946e-01,4.639e+00
7.980e-01,4.436e+00
8.014e-01,4.226e+00
8.048e-01,4.010e+00
8.082e-01,3.791e+00
8.116e-01,3.569e+00
8.149e-01,3.347e+00
8.183e-01,3.125e+00
8.217e-01,2.905e+00
8.251e-01,2.688e+00
8.285e-01,2.476e+00
8.319e-01,2.270e+00
8.353e-01,2.070e+00
8.387e-01,1.879e+00
8.421e-01,1.696e+00
8.455e-01,1.522e+00
8.489e-01,1.358e+00
8.523e-01,1.204e+00
8.557e-01,1.061e+00
8.591e-01,9.294e-01
8.625e-01,8.082e-01
8.659e-01,6.979e-01
8.693e-01,5.981e-01
8.727e-01,5.085e-01
8.761e-01,4.288e-01
8.795e-01,3.585e-01
8.829e-01,2.970e-01
8.863e-01,2.437e-01
8.896e-01,1.979e-01
8.930e-01,1.590e-01
8.964e-01,1.263e-01
8.998e-01,9.909e-02
9.032e-01,7.674e-02
9.066e-01,5.862e-02
9.100e-01,4.412e-02
9.134e-01,3.268e-02
9.168e-01,2.379e-02
9.202e-01,1.700e-02
9.236e-01,1.191e-02
9.270e-01,8.157e-03
9.304e-01,5.457e-03
9.338e-01,3.555e-03
9.372e-01,2.250e-03
9.406e-01,1.379e-03
9.440e-01,8.150e-04
9.474e-01,4.627e-04
9.508e-01,2.510e-04
9.542e-01,1.292e-04
9.576e-01,6.263e-05
9.610e-01,2.831e-05
9.643e-01,1.178e-05
9.677e-01,4.439e-06
9.711e-01,1.482e-06
9.745e-01,4.253e-07
9.779e-01,1.005e-07
9.813e-01,1.831e-08
9.847e-01,2.320e-09
9.881e-01,1.701e-10
9.915e-01,4.976e-12
9.949e-01,2.225e-14
9.983e-01,1.793e-19
