transmittance,probability_density
5.194e-01,5.176e-07
5.218e-01,7.412e-07
5.242e-01,1.049e-06
5.266e-01,1.469e-06
5.290e-01,2.034e-06
5.314e-01,2.784e-06
5.338e-01,3.768e-06
5.362e-01,5.042e-06
5.387e-01,6.672e-06
5.411e-01,8.728e-06
5.435e-01,1.129e-05
5.459e-01,1.444e-05
5.483e-01,1.826e-05
5.507e-01,2.284e-05
5.531e-01,2.823e-05
5.555e-01,3.451e-05
5.579e-01,4.171e-05
5.603e-01,4.984e-05
5.627e-01,5.887e-05
5.652e-01,6.876e-05
5.676e-01,7.939e-05
5.700e-01,9.062e-05
5.724e-01,1.023e-04
5.748e-01,1.141e-04
5.772e-01,1.258e-04
5.796e-01,1.371e-04
5.820e-01,1.478e-04
5.844e-01,1.574e-04
5.868e-01,1.657e-04
5.892e-01,1.725e-04
5.917e-01,1.774e-04
5.941e-01,1.804e-04
5.965e-01,1.814e-04
5.989e-01,1.803e-04
6.013e-01,1.771e-04
6.037e-01,1.721e-04
6.061e-01,1.655e-04
6.085e-01,1.575e-04
6.109e-01,1.485e-04
6.133e-01,1.389e-04
6.158e-01,1.290e-04
6.182e-01,1.194e-04
6.206e-01,1.105e-04
6.230e-01,1.027e-04
6.254e-01,9.639e-05
6.278e-01,9.211e-05
6.302e-01,9.025e-05
6.326e-01,9.121e-05
6.350e-01,9.543e-05
6.374e-01,1.034e-04
6.398e-01,1.155e-04
6.422e-01,1.323e-04
6.447e-01,1.544e-04
6.471e-01,1.824e-04
6.495e-01,2.170e-04
6.519e-01,2.590e-04
6.543e-01,3.092e-04
6.567e-01,3.688e-04
6.591e-01,4.387e-04
6.615e-01,5.203e-04
6.639e-01,6.150e-04
6.663e-01,7.241e-04
6.687e-01,8.496e-04
6.712e-01,9.933e-04
6.736e-01,1.158e-03
6.760e-01,1.345e-03
6.784e-01,1.557e-03
6.808e-01,1.799e-03
6.832e-01,2.074e-03
6.856e-01,2.386e-03
6.880e-01,2.740e-03
6.904e-01,3.142e-03
6.928e-01,3.598e-03
6.952e-01,4.118e-03
6.977e-01,4.708e-03
7.001e-01,5.382e-03
7.025e-01,6.149e-03
7.049e-01,7.025e-03
7.073e-01,8.024e-03
7.097e-01,9.167e-03
7.121e-01,1.047e-02
7.145e-01,1.197e-02
7.169e-01,1.368e-02
7.193e-01,1.563e-02
7.217e-01,1.787e-02
7.242e-01,2.042e-02
7.266e-01,2.334e-02
7.290e-01,2.668e-02
7.314e-01,3.049e-02
7.338e-01,3.483e-02
7.362e-01,3.978e-02
7.386e-01,4.541e-02
7.410e-01,5.182e-02
7.434e-01,5.910e-02
7.458e-01,6.736e-02
7.482e-01,7.673e-02
7.507e-01,8.734e-02
7.531e-01,9.935e-02
7.555e-01,1.129e-01
7.579e-01,1.282e-01
7.603e-01,1.455e-01
7.627e-01,1.649e-01
7.651e-01,1.866e-01
7.675e-01,2.111e-01
7.699e-01,2.385e-01
7.723e-01,2.691e-01
7.747e-01,3.034e-01
7.772e-01,3.415e-01
7.796e-01,3.840e-01
7.820e-01,4.311e-01
7.844e-01,4.835e-01
7.868e-01,5.414e-01
7.892e-01,6.053e-01
7.916e-01,6.759e-01
7.940e-01,7.536e-01
7.964e-01,8.389e-01
7.988e-01,9.324e-01
8.013e-01,1.035e+00
8.037e-01,1.146e+00
8.061e-01,1.268e+00
8.085e-01,1.400e+00
8.109e-01,1.543e+00
8.133e-01,1.698e+00
8.157e-01,1.865e+00
8.181e-01,2.045e+00
8.205e-01,2.237e+00
8.229e-01,2.444e+00
8.253e-01,2.664e+00
8.277e-01,2.899e+00
8.302e-01,3.147e+00
8.326e-01,3.410e+00
8.350e-01,3.688e+00
8.374e-01,3.979e+00
8.398e-01,4.284e+00
8.422e-01,4.602e+00
8.446e-01,4.933e+00
8.470e-01,5.275e+00
8.494e-01,5.627e+00
8.518e-01,5.988e+00
8.542e-01,6.356e+00
8.567e-01,6.730e+00
8.591e-01,7.107e+00
8.615e-01,7.485e+00
8.639e-01,7.861e+00
8.663e-01,8.233e+00
8.687e-01,8.597e+00
8.711e-01,8.950e+00
8.735e-01,9.288e+00
8.759e-01,9.609e+00
8.783e-01,9.908e+00
8.807e-01,1.018e+01
8.832e-01,1.043e+01
8.856e-01,1.064e+01
8.880e-01,1.081e+01
8.904e-01,1.095e+01
8.928e-01,1.104e+01
8.952e-01,1.109e+01
8.976e-01,1.108e+01
9.000e-01,1.103e+01
9.024e-01,1.093e+01
9.048e-01,1.077e+01
9.073e-01,1.056e+01
9.097e-01,1.030e+01
9.121e-01,9.985e+00
9.145e-01,9.624e+00
9.169e-01,9.219e+00
9.193e-01,8.772e+00
9.217e-01,8.289e+00
9.241e-01,7.774e+00
9.265e-01,7.235e+00
9.289e-01,6.677e+00
9.313e-01,6.107e+00
9.338e-01,5.534e+00
9.362e-01,4.964e+00
9.386e-01,4.404e+00
9.410e-01,3.862e+00
9.434e-01,3.344e+00
9.458e-01,2.857e+00
9.482e-01,2.404e+00
9.506e-01,1.990e+00
9.530e-01,1.619e+00
9.554e-01,1.291e+00
9.578e-01,1.007e+00
9.603e-01,7.671e-01
9.627e-01,5.684e-01
9.651e-01,4.084e-01
9.675e-01,2.833e-01
9.699e-01,1.887e-01
9.723e-01,1.199e-01
9.747e-01,7.204e-02
9.771e-01,4.050e-02
9.795e-01,2.098e-02
9.819e-01,9.819e-03
9.843e-01,4.032e-03
9.868e-01,1.391e-03
9.892e-01,3.759e-04
9.916e-01,7.036e-05
9.940e-01,7.112e-06
9.964e-01,2.042e-07
9.988e-01,8.538e-11
