transmittance,probability_density
6.656e-01,3.601e-17
6.672e-01,5.046e-17
6.689e-01,7.065e-17
6.706e-01,9.881e-17
6.723e-01,1.381e-16
6.739e-01,1.927e-16
6.756e-01,2.687e-16
6.773e-01,3.744e-16
6.790e-01,5.211e-16
6.807e-01,7.245e-16
6.823e-01,1.006e-15
6.840e-01,1.397e-15
6.857e-01,1.936e-15
6.874e-01,2.682e-15
6.890e-01,3.711e-15
6.907e-01,5.132e-15
6.924e-01,7.089e-15
6.941e-01,9.786e-15
6.957e-01,1.350e-14
6.974e-01,1.861e-14
6.991e-01,2.564e-14
7.008e-01,3.531e-14
7.024e-01,4.862e-14
7.041e-01,6.696e-14
7.058e-01,9.227e-14
7.075e-01,1.273e-13
7.092e-01,1.759e-13
7.108e-01,2.436e-13
7.125e-01,3.386e-13
7.142e-01,4.729e-13
7.159e-01,6.644e-13
7.175e-01,9.405e-13
7.192e-01,1.344e-12
7.209e-01,1.940e-12
7.226e-01,2.835e-12
7.242e-01,4.198e-12
7.259e-01,6.299e-12
7.276e-01,9.578e-12
7.293e-01,1.475e-11
7.309e-01,2.297e-11
7.326e-01,3.612e-11
7.343e-01,5.723e-11
7.360e-01,9.118e-11
7.376e-01,1.458e-10
7.393e-01,2.335e-10
7.410e-01,3.740e-10
7.427e-01,5.983e-10
7.444e-01,9.545e-10
7.460e-01,1.517e-09
7.477e-01,2.401e-09
7.494e-01,3.781e-09
7.511e-01,5.919e-09
7.527e-01,9.209e-09
7.544e-01,1.423e-08
7.561e-01,2.185e-08
7.578e-01,3.330e-08
7.594e-01,5.038e-08
7.611e-01,7.566e-08
7.628e-01,1.127e-07
7.645e-01,1.667e-07
7.661e-01,2.445e-07
7.678e-01,3.558e-07
7.695e-01,5.135e-07
7.712e-01,7.351e-07
7.729e-01,1.044e-06
7.745e-01,1.470e-06
7.762e-01,2.053e-06
7.779e-01,2.843e-06
7.796e-01,3.905e-06
7.812e-01,5.318e-06
7.829e-01,7.183e-06
7.846e-01,9.622e-06
7.863e-01,1.278e-05
7.879e-01,1.684e-05
7.896e-01,2.201e-05
7.913e-01,2.854e-05
7.930e-01,3.670e-05
7.946e-01,4.685e-05
7.963e-01,5.934e-05
7.980e-01,7.461e-05
7.997e-01,9.316e-05
8.014e-01,1.155e-04
8.030e-01,1.423e-04
8.047e-01,1.743e-04
8.064e-01,2.122e-04
8.081e-01,2.570e-04
8.097e-01,3.099e-04
8.114e-01,3.720e-04
8.131e-01,4.449e-04
8.148e-01,5.304e-04
8.164e-01,6.307e-04
8.181e-01,7.484e-04
8.198e-01,8.864e-04
8.215e-01,1.049e-03
8.231e-01,1.239e-03
8.248e-01,1.464e-03
8.265e-01,1.727e-03
8.282e-01,2.038e-03
8.298e-01,2.403e-03
8.315e-01,2.832e-03
8.332e-01,3.336e-03
8.349e-01,3.927e-03
8.366e-01,4.619e-03
8.382e-01,5.427e-03
8.399e-01,6.369e-03
8.416e-01,7.467e-03
8.433e-01,8.743e-03
8.449e-01,1.022e-02
8.466e-01,1.194e-02
8.483e-01,1.393e-02
8.500e-01,1.624e-02
8.516e-01,1.891e-02
8.533e-01,2.200e-02
8.550e-01,2.558e-02
8.567e-01,2.973e-02
8.583e-01,3.454e-02
8.600e-01,4.014e-02
8.617e-01,4.664e-02
8.634e-01,5.420e-02
8.651e-01,6.300e-02
8.667e-01,7.326e-02
8.684e-01,8.521e-02
8.701e-01,9.915e-02
8.718e-01,1.154e-01
8.734e-01,1.343e-01
8.751e-01,1.564e-01
8.768e-01,1.820e-01
8.785e-01,2.118e-01
8.801e-01,2.465e-01
8.818e-01,2.866e-01
8.835e-01,3.331e-01
8.852e-01,3.869e-01
8.868e-01,4.489e-01
8.885e-01,5.203e-01
8.902e-01,6.023e-01
8.919e-01,6.964e-01
8.936e-01,8.041e-01
8.952e-01,9.271e-01
8.969e-01,1.067e+00
8.986e-01,1.226e+00
9.003e-01,1.407e+00
9.019e-01,1.610e+00
9.036e-01,1.840e+00
9.053e-01,2.098e+00
9.070e-01,2.387e+00
9.086e-01,2.710e+00
9.103e-01,3.070e+00
9.120e-01,3.469e+00
9.137e-01,3.909e+00
9.153e-01,4.394e+00
9.170e-01,4.926e+00
9.187e-01,5.506e+00
9.204e-01,6.137e+00
9.220e-01,6.818e+00
9.237e-01,7.551e+00
9.254e-01,8.335e+00
9.271e-01,9.168e+00
9.288e-01,1.005e+01
9.304e-01,1.097e+01
9.321e-01,1.193e+01
9.338e-01,1.292e+01
9.355e-01,1.393e+01
9.371e-01,1.495e+01
9.388e-01,1.596e+01
9.405e-01,1.697e+01
9.422e-01,1.794e+01
9.438e-01,1.886e+01
9.455e-01,1.970e+01
9.472e-01,2.046e+01
9.489e-01,2.111e+01
9.505e-01,2.163e+01
9.522e-01,2.200e+01
9.539e-01,2.219e+01
9.556e-01,2.220e+01
9.573e-01,2.200e+01
9.589e-01,2.159e+01
9.606e-01,2.096e+01
9.623e-01,2.012e+01
9.640e-01,1.908e+01
9.656e-01,1.784e+01
9.673e-01,1.644e+01
9.690e-01,1.489e+01
9.707e-01,1.325e+01
9.723e-01,1.155e+01
9.740e-01,9.846e+00
9.757e-01,8.176e+00
9.774e-01,6.592e+00
9.790e-01,5.137e+00
9.807e-01,3.849e+00
9.824e-01,2.752e+00
9.841e-01,1.861e+00
9.858e-01,1.176e+00
9.874e-01,6.820e-01
9.891e-01,3.547e-01
9.908e-01,1.594e-01
9.925e-01,5.845e-02
9.941e-01,1.577e-02
9.958e-01,2.542e-03
9.975e-01,1.433e-04
9.992e-01,2.368e-07
