transmittance,probability_density
7.128e-01,5.040e-17
7.143e-01,6.991e-17
7.157e-01,9.690e-17
7.171e-01,1.342e-16
7.186e-01,1.857e-16
7.200e-01,2.569e-16
7.214e-01,3.550e-16
7.229e-01,4.904e-16
7.243e-01,6.771e-16
7.258e-01,9.347e-16
7.272e-01,1.290e-15
7.286e-01,1.782e-15
7.301e-01,2.463e-15
7.315e-01,3.408e-15
7.330e-01,4.729e-15
7.344e-01,6.582e-15
7.358e-01,9.208e-15
7.373e-01,1.297e-14
7.387e-01,1.843e-14
7.402e-01,2.648e-14
7.416e-01,3.858e-14
7.430e-01,5.714e-14
7.445e-01,8.618e-14
7.459e-01,1.326e-13
7.474e-01,2.079e-13
7.488e-01,3.324e-13
7.502e-01,5.404e-13
7.517e-01,8.911e-13
7.531e-01,1.486e-12
7.546e-01,2.499e-12
7.560e-01,4.223e-12
7.574e-01,7.158e-12
7.589e-01,1.214e-11
7.603e-01,2.056e-11
7.618e-01,3.474e-11
7.632e-01,5.846e-11
7.646e-01,9.792e-11
7.661e-01,1.631e-10
7.675e-01,2.702e-10
7.690e-01,4.446e-10
7.704e-01,7.266e-10
7.718e-01,1.179e-09
7.733e-01,1.900e-09
7.747e-01,3.038e-09
7.762e-01,4.822e-09
7.776e-01,7.593e-09
7.790e-01,1.186e-08
7.805e-01,1.839e-08
7.819e-01,2.827e-08
7.833e-01,4.310e-08
7.848e-01,6.518e-08
7.862e-01,9.776e-08
7.877e-01,1.454e-07
7.891e-01,2.144e-07
7.905e-01,3.134e-07
7.920e-01,4.542e-07
7.934e-01,6.526e-07
7.949e-01,9.294e-07
7.963e-01,1.312e-06
7.977e-01,1.836e-06
7.992e-01,2.546e-06
8.006e-01,3.498e-06
8.021e-01,4.764e-06
8.035e-01,6.429e-06
8.049e-01,8.596e-06
8.064e-01,1.139e-05
8.078e-01,1.495e-05
8.093e-01,1.945e-05
8.107e-01,2.507e-05
8.121e-01,3.201e-05
8.136e-01,4.050e-05
8.150e-01,5.079e-05
8.165e-01,6.310e-05
8.179e-01,7.771e-05
8.193e-01,9.486e-05
8.208e-01,1.148e-04
8.222e-01,1.378e-04
8.237e-01,1.640e-04
8.251e-01,1.937e-04
8.265e-01,2.270e-04
8.280e-01,2.643e-04
8.294e-01,3.057e-04
8.309e-01,3.516e-04
8.323e-01,4.023e-04
8.337e-01,4.583e-04
8.352e-01,5.201e-04
8.366e-01,5.887e-04
8.381e-01,6.651e-04
8.395e-01,7.506e-04
8.409e-01,8.467e-04
8.424e-01,9.556e-04
8.438e-01,1.079e-03
8.452e-01,1.221e-03
8.467e-01,1.384e-03
8.481e-01,1.571e-03
8.496e-01,1.786e-03
8.510e-01,2.035e-03
8.524e-01,2.322e-03
8.539e-01,2.653e-03
8.553e-01,3.035e-03
8.568e-01,3.475e-03
8.582e-01,3.982e-03
8.596e-01,4.566e-03
8.611e-01,5.239e-03
8.625e-01,6.015e-03
8.640e-01,6.909e-03
8.654e-01,7.942e-03
8.668e-01,9.137e-03
8.683e-01,1.052e-02
8.697e-01,1.213e-02
8.712e-01,1.400e-02
8.726e-01,1.618e-02
8.740e-01,1.872e-02
8.755e-01,2.170e-02
8.769e-01,2.520e-02
8.784e-01,2.930e-02
8.798e-01,3.413e-02
8.812e-01,3.981e-02
8.827e-01,4.650e-02
8.841e-01,5.439e-02
8.856e-01,6.367e-02
8.870e-01,7.462e-02
8.884e-01,8.750e-02
8.899e-01,1.027e-01
8.913e-01,1.205e-01
8.928e-01,1.414e-01
8.942e-01,1.660e-01
8.956e-01,1.948e-01
8.971e-01,2.284e-01
8.985e-01,2.677e-01
9.000e-01,3.135e-01
9.014e-01,3.668e-01
9.028e-01,4.287e-01
9.043e-01,5.005e-01
9.057e-01,5.835e-01
9.071e-01,6.793e-01
9.086e-01,7.897e-01
9.100e-01,9.167e-01
9.115e-01,1.062e+00
9.129e-01,1.229e+00
9.143e-01,1.419e+00
9.158e-01,1.635e+00
9.172e-01,1.880e+00
9.187e-01,2.158e+00
9.201e-01,2.471e+00
9.215e-01,2.823e+00
9.230e-01,3.217e+00
9.244e-01,3.657e+00
9.259e-01,4.147e+00
9.273e-01,4.691e+00
9.287e-01,5.290e+00
9.302e-01,5.948e+00
9.316e-01,6.668e+00
9.331e-01,7.452e+00
9.345e-01,8.301e+00
9.359e-01,9.214e+00
9.374e-01,1.019e+01
9.388e-01,1.123e+01
9.403e-01,1.233e+01
9.417e-01,1.347e+01
9.431e-01,1.467e+01
9.446e-01,1.589e+01
9.460e-01,1.714e+01
9.475e-01,1.840e+01
9.489e-01,1.964e+01
9.503e-01,2.086e+01
9.518e-01,2.202e+01
9.532e-01,2.311e+01
9.547e-01,2.409e+01
9.561e-01,2.495e+01
9.575e-01,2.565e+01
9.590e-01,2.617e+01
9.604e-01,2.648e+01
9.619e-01,2.656e+01
9.633e-01,2.639e+01
9.647e-01,2.595e+01
9.662e-01,2.524e+01
9.676e-01,2.427e+01
9.690e-01,2.303e+01
9.705e-01,2.154e+01
9.719e-01,1.985e+01
9.734e-01,1.797e+01
9.748e-01,1.597e+01
9.762e-01,1.390e+01
9.777e-01,1.181e+01
9.791e-01,9.767e+00
9.806e-01,7.836e+00
9.820e-01,6.069e+00
9.834e-01,4.512e+00
9.849e-01,3.196e+00
9.863e-01,2.136e+00
9.878e-01,1.330e+00
9.892e-01,7.582e-01
9.906e-01,3.858e-01
9.921e-01,1.687e-01
9.935e-01,5.968e-02
9.950e-01,1.535e-02
9.964e-01,2.311e-03
9.978e-01,1.166e-04
9.993e-01,1.497e-07
