transmittance,probability_density
8.254e-01,1.241e-33
8.263e-01,2.162e-33
8.272e-01,3.765e-33
8.281e-01,6.550e-33
8.289e-01,1.139e-32
8.298e-01,1.978e-32
8.307e-01,3.433e-32
8.316e-01,5.953e-32
8.324e-01,1.031e-31
8.333e-01,1.786e-31
8.342e-01,3.089e-31
8.351e-01,5.340e-31
8.359e-01,9.224e-31
8.368e-01,1.592e-30
8.377e-01,2.745e-30
8.386e-01,4.729e-30
8.394e-01,8.142e-30
8.403e-01,1.401e-29
8.412e-01,2.407e-29
8.421e-01,4.134e-29
8.429e-01,7.094e-29
8.438e-01,1.216e-28
8.447e-01,2.084e-28
8.456e-01,3.567e-28
8.464e-01,6.101e-28
8.473e-01,1.043e-27
8.482e-01,1.780e-27
8.491e-01,3.038e-27
8.499e-01,5.178e-27
8.508e-01,8.820e-27
8.517e-01,1.501e-26
8.526e-01,2.553e-26
8.534e-01,4.338e-26
8.543e-01,7.364e-26
8.552e-01,1.249e-25
8.561e-01,2.117e-25
8.569e-01,3.585e-25
8.578e-01,6.066e-25
8.587e-01,1.026e-24
8.596e-01,1.732e-24
8.604e-01,2.924e-24
8.613e-01,4.931e-24
8.622e-01,8.308e-24
8.631e-01,1.399e-23
8.639e-01,2.353e-23
8.648e-01,3.954e-23
8.657e-01,6.639e-23
8.666e-01,1.114e-22
8.674e-01,1.867e-22
8.683e-01,3.127e-22
8.692e-01,5.233e-22
8.701e-01,8.749e-22
8.709e-01,1.462e-21
8.718e-01,2.439e-21
8.727e-01,4.068e-21
8.736e-01,6.777e-21
8.744e-01,1.128e-20
8.753e-01,1.877e-20
8.762e-01,3.120e-20
8.771e-01,5.182e-20
8.779e-01,8.606e-20
8.788e-01,1.429e-19
8.797e-01,2.376e-19
8.806e-01,3.961e-19
8.814e-01,6.636e-19
8.823e-01,1.122e-18
8.832e-01,1.929e-18
8.841e-01,3.403e-18
8.849e-01,6.246e-18
8.858e-01,1.209e-17
8.867e-01,2.491e-17
8.876e-01,5.480e-17
8.884e-01,1.276e-16
8.893e-01,3.101e-16
8.902e-01,7.747e-16
8.911e-01,1.963e-15
8.919e-01,4.997e-15
8.928e-01,1.269e-14
8.937e-01,3.202e-14
8.946e-01,8.006e-14
8.954e-01,1.979e-13
8.963e-01,4.833e-13
8.972e-01,1.165e-12
8.981e-01,2.769e-12
8.989e-01,6.492e-12
8.998e-01,1.500e-11
9.007e-01,3.414e-11
9.016e-01,7.656e-11
9.024e-01,1.691e-10
9.033e-01,3.677e-10
9.042e-01,7.870e-10
9.051e-01,1.658e-09
9.059e-01,3.436e-09
9.068e-01,7.004e-09
9.077e-01,1.404e-08
9.086e-01,2.768e-08
9.094e-01,5.363e-08
9.103e-01,1.021e-07
9.112e-01,1.911e-07
9.121e-01,3.511e-07
9.129e-01,6.337e-07
9.138e-01,1.123e-06
9.147e-01,1.953e-06
9.156e-01,3.334e-06
9.164e-01,5.583e-06
9.173e-01,9.171e-06
9.182e-01,1.478e-05
9.191e-01,2.335e-05
9.199e-01,3.616e-05
9.208e-01,5.491e-05
9.217e-01,8.174e-05
9.226e-01,1.192e-04
9.234e-01,1.705e-04
9.243e-01,2.389e-04
9.252e-01,3.281e-04
9.261e-01,4.418e-04
9.269e-01,5.832e-04
9.278e-01,7.549e-04
9.287e-01,9.587e-04
9.296e-01,1.195e-03
9.304e-01,1.463e-03
9.313e-01,1.759e-03
9.322e-01,2.082e-03
9.331e-01,2.425e-03
9.339e-01,2.786e-03
9.348e-01,3.163e-03
9.357e-01,3.553e-03
9.366e-01,3.962e-03
9.374e-01,4.398e-03
9.383e-01,4.874e-03
9.392e-01,5.410e-03
9.401e-01,6.033e-03
9.409e-01,6.775e-03
9.418e-01,7.673e-03
9.427e-01,8.771e-03
9.436e-01,1.012e-02
9.444e-01,1.176e-02
9.453e-01,1.376e-02
9.462e-01,1.619e-02
9.471e-01,1.915e-02
9.479e-01,2.274e-02
9.488e-01,2.713e-02
9.497e-01,3.252e-02
9.506e-01,3.919e-02
9.514e-01,4.749e-02
9.523e-01,5.788e-02
9.532e-01,7.099e-02
9.541e-01,8.760e-02
9.549e-01,1.087e-01
9.558e-01,1.358e-01
9.567e-01,1.705e-01
9.576e-01,2.151e-01
9.584e-01,2.727e-01
9.593e-01,3.472e-01
9.602e-01,4.436e-01
9.611e-01,5.684e-01
9.619e-01,7.298e-01
9.628e-01,9.382e-01
9.637e-01,1.206e+00
9.646e-01,1.551e+00
9.654e-01,1.990e+00
9.663e-01,2.549e+00
9.672e-01,3.254e+00
9.681e-01,4.139e+00
9.689e-01,5.240e+00
9.698e-01,6.601e+00
9.707e-01,8.268e+00
9.716e-01,1.029e+01
9.724e-01,1.272e+01
9.733e-01,1.560e+01
9.742e-01,1.897e+01
9.751e-01,2.287e+01
9.759e-01,2.731e+01
9.768e-01,3.225e+01
9.777e-01,3.766e+01
9.786e-01,4.343e+01
9.794e-01,4.941e+01
9.803e-01,5.537e+01
9.812e-01,6.106e+01
9.821e-01,6.614e+01
9.829e-01,7.025e+01
9.838e-01,7.302e+01
9.847e-01,7.408e+01
9.856e-01,7.316e+01
9.864e-01,7.008e+01
9.873e-01,6.487e+01
9.882e-01,5.774e+01
9.891e-01,4.912e+01
9.899e-01,3.963e+01
9.908e-01,3.005e+01
9.917e-01,2.114e+01
9.926e-01,1.358e+01
9.934e-01,7.780e+00
9.943e-01,3.850e+00
9.952e-01,1.567e+00
9.961e-01,4.848e-01
9.969e-01,9.929e-02
9.978e-01,1.017e-02
9.987e-01,2.532e-04
9.996e-01,5.395e-08
