transmittance,probability_density
8.118e-01,4.025e-35
8.128e-01,7.134e-35
8.137e-01,1.263e-34
8.147e-01,2.235e-34
8.156e-01,3.952e-34
8.166e-01,6.980e-34
8.175e-01,1.232e-33
8.184e-01,2.172e-33
8.194e-01,3.826e-33
8.203e-01,6.735e-33
8.213e-01,1.185e-32
8.222e-01,2.081e-32
8.232e-01,3.654e-32
8.241e-01,6.410e-32
8.250e-01,1.123e-31
8.260e-01,1.967e-31
8.269e-01,3.442e-31
8.279e-01,6.018e-31
8.288e-01,1.051e-30
8.298e-01,1.834e-30
8.307e-01,3.198e-30
8.316e-01,5.571e-30
8.326e-01,9.698e-30
8.335e-01,1.686e-29
8.345e-01,2.930e-29
8.354e-01,5.087e-29
8.364e-01,8.824e-29
8.373e-01,1.529e-28
8.382e-01,2.648e-28
8.392e-01,4.581e-28
8.401e-01,7.919e-28
8.411e-01,1.368e-27
8.420e-01,2.360e-27
8.430e-01,4.069e-27
8.439e-01,7.008e-27
8.448e-01,1.206e-26
8.458e-01,2.074e-26
8.467e-01,3.563e-26
8.477e-01,6.116e-26
8.486e-01,1.049e-25
8.496e-01,1.797e-25
8.505e-01,3.077e-25
8.514e-01,5.263e-25
8.524e-01,8.993e-25
8.533e-01,1.536e-24
8.543e-01,2.619e-24
8.552e-01,4.464e-24
8.562e-01,7.602e-24
8.571e-01,1.293e-23
8.581e-01,2.198e-23
8.590e-01,3.734e-23
8.599e-01,6.335e-23
8.609e-01,1.074e-22
8.618e-01,1.819e-22
8.628e-01,3.078e-22
8.637e-01,5.203e-22
8.647e-01,8.788e-22
8.656e-01,1.483e-21
8.665e-01,2.500e-21
8.675e-01,4.212e-21
8.684e-01,7.088e-21
8.694e-01,1.192e-20
8.703e-01,2.002e-20
8.713e-01,3.359e-20
8.722e-01,5.632e-20
8.731e-01,9.434e-20
8.741e-01,1.579e-19
8.750e-01,2.640e-19
8.760e-01,4.409e-19
8.769e-01,7.357e-19
8.779e-01,1.227e-18
8.788e-01,2.043e-18
8.797e-01,3.400e-18
8.807e-01,5.652e-18
8.816e-01,9.387e-18
8.826e-01,1.558e-17
8.835e-01,2.583e-17
8.845e-01,4.280e-17
8.854e-01,7.089e-17
8.863e-01,1.174e-16
8.873e-01,1.946e-16
8.882e-01,3.231e-16
8.892e-01,5.385e-16
8.901e-01,9.034e-16
8.911e-01,1.532e-15
8.920e-01,2.645e-15
8.929e-01,4.683e-15
8.939e-01,8.587e-15
8.948e-01,1.645e-14
8.958e-01,3.306e-14
8.967e-01,6.972e-14
8.977e-01,1.532e-13
8.986e-01,3.475e-13
8.996e-01,8.042e-13
9.005e-01,1.881e-12
9.014e-01,4.414e-12
9.024e-01,1.033e-11
9.033e-01,2.401e-11
9.043e-01,5.527e-11
9.052e-01,1.258e-10
9.062e-01,2.827e-10
9.071e-01,6.267e-10
9.080e-01,1.369e-09
9.090e-01,2.947e-09
9.099e-01,6.246e-09
9.109e-01,1.303e-08
9.118e-01,2.674e-08
9.128e-01,5.396e-08
9.137e-01,1.071e-07
9.146e-01,2.089e-07
9.156e-01,4.004e-07
9.165e-01,7.539e-07
9.175e-01,1.394e-06
9.184e-01,2.530e-06
9.194e-01,4.508e-06
9.203e-01,7.880e-06
9.212e-01,1.351e-05
9.222e-01,2.271e-05
9.231e-01,3.742e-05
9.241e-01,6.042e-05
9.250e-01,9.558e-05
9.260e-01,1.481e-04
9.269e-01,2.247e-04
9.278e-01,3.336e-04
9.288e-01,4.850e-04
9.297e-01,6.900e-04
9.307e-01,9.606e-04
9.316e-01,1.309e-03
9.326e-01,1.746e-03
9.335e-01,2.280e-03
9.344e-01,2.916e-03
9.354e-01,3.658e-03
9.363e-01,4.505e-03
9.373e-01,5.454e-03
9.382e-01,6.507e-03
9.392e-01,7.668e-03
9.401e-01,8.957e-03
9.411e-01,1.041e-02
9.420e-01,1.207e-02
9.429e-01,1.404e-02
9.439e-01,1.642e-02
9.448e-01,1.936e-02
9.458e-01,2.303e-02
9.467e-01,2.763e-02
9.477e-01,3.342e-02
9.486e-01,4.066e-02
9.495e-01,4.971e-02
9.505e-01,6.096e-02
9.514e-01,7.495e-02
9.524e-01,9.235e-02
9.533e-01,1.140e-01
9.543e-01,1.412e-01
9.552e-01,1.753e-01
9.561e-01,2.185e-01
9.571e-01,2.735e-01
9.580e-01,3.439e-01
9.590e-01,4.344e-01
9.599e-01,5.511e-01
9.609e-01,7.016e-01
9.618e-01,8.961e-01
9.627e-01,1.147e+00
9.637e-01,1.469e+00
9.646e-01,1.883e+00
9.656e-01,2.411e+00
9.665e-01,3.082e+00
9.675e-01,3.928e+00
9.684e-01,4.989e+00
9.693e-01,6.308e+00
9.703e-01,7.935e+00
9.712e-01,9.921e+00
9.722e-01,1.232e+01
9.731e-01,1.519e+01
9.741e-01,1.856e+01
9.750e-01,2.248e+01
9.759e-01,2.695e+01
9.769e-01,3.195e+01
9.778e-01,3.742e+01
9.788e-01,4.324e+01
9.797e-01,4.925e+01
9.807e-01,5.518e+01
9.816e-01,6.075e+01
9.826e-01,6.556e+01
9.835e-01,6.923e+01
9.844e-01,7.132e+01
9.854e-01,7.149e+01
9.863e-01,6.944e+01
9.873e-01,6.509e+01
9.882e-01,5.855e+01
9.892e-01,5.019e+01
9.901e-01,4.066e+01
9.910e-01,3.077e+01
9.920e-01,2.142e+01
9.929e-01,1.345e+01
9.939e-01,7.384e+00
9.948e-01,3.393e+00
9.958e-01,1.215e+00
9.967e-01,2.987e-01
9.976e-01,3.909e-02
9.986e-01,1.410e-03
9.995e-01,6.675e-07
