transmittance,probability_density
6.073e-01,4.586e-15
6.092e-01,6.362e-15
6.112e-01,8.837e-15
6.132e-01,1.230e-14
6.151e-01,1.717e-14
6.171e-01,2.407e-14
6.191e-01,3.396e-14
6.210e-01,4.829e-14
6.230e-01,6.935e-14
6.250e-01,1.008e-13
6.269e-01,1.487e-13
6.289e-01,2.229e-13
6.309e-01,3.397e-13
6.328e-01,5.268e-13
6.348e-01,8.302e-13
6.368e-01,1.328e-12
6.388e-01,2.150e-12
6.407e-01,3.517e-12
6.427e-01,5.795e-12
6.447e-01,9.593e-12
6.466e-01,1.592e-11
6.486e-01,2.643e-11
6.506e-01,4.383e-11
6.525e-01,7.248e-11
6.545e-01,1.194e-10
6.565e-01,1.959e-10
6.584e-01,3.196e-10
6.604e-01,5.185e-10
6.624e-01,8.357e-10
6.643e-01,1.338e-09
6.663e-01,2.128e-09
6.683e-01,3.360e-09
6.703e-01,5.267e-09
6.722e-01,8.194e-09
6.742e-01,1.265e-08
6.762e-01,1.939e-08
6.781e-01,2.947e-08
6.801e-01,4.446e-08
6.821e-01,6.654e-08
6.840e-01,9.880e-08
6.860e-01,1.455e-07
6.880e-01,2.126e-07
6.899e-01,3.081e-07
6.919e-01,4.429e-07
6.939e-01,6.314e-07
6.958e-01,8.928e-07
6.978e-01,1.252e-06
6.998e-01,1.741e-06
7.018e-01,2.401e-06
7.037e-01,3.283e-06
7.057e-01,4.453e-06
7.077e-01,5.988e-06
7.096e-01,7.984e-06
7.116e-01,1.056e-05
7.136e-01,1.384e-05
7.155e-01,1.799e-05
7.175e-01,2.318e-05
7.195e-01,2.962e-05
7.214e-01,3.753e-05
7.234e-01,4.716e-05
7.254e-01,5.876e-05
7.273e-01,7.260e-05
7.293e-01,8.897e-05
7.313e-01,1.081e-04
7.332e-01,1.304e-04
7.352e-01,1.560e-04
7.372e-01,1.851e-04
7.392e-01,2.181e-04
7.411e-01,2.552e-04
7.431e-01,2.964e-04
7.451e-01,3.422e-04
7.470e-01,3.926e-04
7.490e-01,4.480e-04
7.510e-01,5.086e-04
7.529e-01,5.751e-04
7.549e-01,6.479e-04
7.569e-01,7.279e-04
7.588e-01,8.162e-04
7.608e-01,9.142e-04
7.628e-01,1.024e-03
7.647e-01,1.147e-03
7.667e-01,1.286e-03
7.687e-01,1.445e-03
7.707e-01,1.626e-03
7.726e-01,1.835e-03
7.746e-01,2.077e-03
7.766e-01,2.356e-03
7.785e-01,2.680e-03
7.805e-01,3.054e-03
7.825e-01,3.488e-03
7.844e-01,3.989e-03
7.864e-01,4.567e-03
7.884e-01,5.234e-03
7.903e-01,6.002e-03
7.923e-01,6.885e-03
7.943e-01,7.898e-03
7.962e-01,9.061e-03
7.982e-01,1.040e-02
8.002e-01,1.192e-02
8.022e-01,1.368e-02
8.041e-01,1.569e-02
8.061e-01,1.800e-02
8.081e-01,2.065e-02
8.100e-01,2.369e-02
8.120e-01,2.720e-02
8.140e-01,3.123e-02
8.159e-01,3.588e-02
8.179e-01,4.124e-02
8.199e-01,4.742e-02
8.218e-01,5.456e-02
8.238e-01,6.279e-02
8.258e-01,7.228e-02
8.277e-01,8.324e-02
8.297e-01,9.586e-02
8.317e-01,1.104e-01
8.337e-01,1.271e-01
8.356e-01,1.464e-01
8.376e-01,1.685e-01
8.396e-01,1.938e-01
8.415e-01,2.228e-01
8.435e-01,2.560e-01
8.455e-01,2.938e-01
8.474e-01,3.369e-01
8.494e-01,3.859e-01
8.514e-01,4.415e-01
8.533e-01,5.045e-01
8.553e-01,5.757e-01
8.573e-01,6.560e-01
8.592e-01,7.463e-01
8.612e-01,8.478e-01
8.632e-01,9.615e-01
8.651e-01,1.089e+00
8.671e-01,1.230e+00
8.691e-01,1.388e+00
8.711e-01,1.563e+00
8.730e-01,1.756e+00
8.750e-01,1.970e+00
8.770e-01,2.205e+00
8.789e-01,2.463e+00
8.809e-01,2.745e+00
8.829e-01,3.052e+00
8.848e-01,3.386e+00
8.868e-01,3.748e+00
8.888e-01,4.139e+00
8.907e-01,4.558e+00
8.927e-01,5.007e+00
8.947e-01,5.486e+00
8.966e-01,5.994e+00
8.986e-01,6.531e+00
9.006e-01,7.095e+00
9.026e-01,7.685e+00
9.045e-01,8.298e+00
9.065e-01,8.931e+00
9.085e-01,9.580e+00
9.104e-01,1.024e+01
9.124e-01,1.091e+01
9.144e-01,1.158e+01
9.163e-01,1.224e+01
9.183e-01,1.288e+01
9.203e-01,1.351e+01
9.222e-01,1.410e+01
9.242e-01,1.465e+01
9.262e-01,1.514e+01
9.281e-01,1.558e+01
9.301e-01,1.594e+01
9.321e-01,1.622e+01
9.341e-01,1.641e+01
9.360e-01,1.650e+01
9.380e-01,1.648e+01
9.400e-01,1.635e+01
9.419e-01,1.610e+01
9.439e-01,1.573e+01
9.459e-01,1.524e+01
9.478e-01,1.463e+01
9.498e-01,1.391e+01
9.518e-01,1.309e+01
9.537e-01,1.219e+01
9.557e-01,1.121e+01
9.577e-01,1.017e+01
9.596e-01,9.099e+00
9.616e-01,8.013e+00
9.636e-01,6.936e+00
9.655e-01,5.889e+00
9.675e-01,4.894e+00
9.695e-01,3.970e+00
9.715e-01,3.134e+00
9.734e-01,2.399e+00
9.754e-01,1.772e+00
9.774e-01,1.255e+00
9.793e-01,8.468e-01
9.813e-01,5.386e-01
9.833e-01,3.189e-01
9.852e-01,1.726e-01
9.872e-01,8.328e-02
9.892e-01,3.447e-02
9.911e-01,1.151e-02
9.931e-01,2.783e-03
9.951e-01,3.914e-04
9.970e-01,1.821e-05
9.990e-01,2.063e-08
