transmittance,probability_density
7.990e-01,2.960e-30
8.001e-01,4.896e-30
8.011e-01,8.092e-30
8.021e-01,1.336e-29
8.031e-01,2.204e-29
8.041e-01,3.634e-29
8.051e-01,5.986e-29
8.061e-01,9.852e-29
8.071e-01,1.620e-28
8.081e-01,2.662e-28
8.091e-01,4.371e-28
8.101e-01,7.171e-28
8.111e-01,1.176e-27
8.121e-01,1.925e-27
8.132e-01,3.151e-27
8.142e-01,5.152e-27
8.152e-01,8.419e-27
8.162e-01,1.374e-26
8.172e-01,2.242e-26
8.182e-01,3.654e-26
8.192e-01,5.951e-26
8.202e-01,9.684e-26
8.212e-01,1.575e-25
8.222e-01,2.558e-25
8.232e-01,4.153e-25
8.242e-01,6.735e-25
8.252e-01,1.092e-24
8.262e-01,1.768e-24
8.273e-01,2.860e-24
8.283e-01,4.624e-24
8.293e-01,7.469e-24
8.303e-01,1.206e-23
8.313e-01,1.944e-23
8.323e-01,3.133e-23
8.333e-01,5.045e-23
8.343e-01,8.116e-23
8.353e-01,1.305e-22
8.363e-01,2.095e-22
8.373e-01,3.363e-22
8.383e-01,5.392e-22
8.393e-01,8.639e-22
8.403e-01,1.383e-21
8.414e-01,2.212e-21
8.424e-01,3.535e-21
8.434e-01,5.646e-21
8.444e-01,9.009e-21
8.454e-01,1.436e-20
8.464e-01,2.288e-20
8.474e-01,3.642e-20
8.484e-01,5.793e-20
8.494e-01,9.210e-20
8.504e-01,1.464e-19
8.514e-01,2.326e-19
8.524e-01,3.701e-19
8.534e-01,5.902e-19
8.544e-01,9.461e-19
8.555e-01,1.531e-18
8.565e-01,2.522e-18
8.575e-01,4.272e-18
8.585e-01,7.559e-18
8.595e-01,1.419e-17
8.605e-01,2.861e-17
8.615e-01,6.194e-17
8.625e-01,1.426e-16
8.635e-01,3.434e-16
8.645e-01,8.494e-16
8.655e-01,2.129e-15
8.665e-01,5.353e-15
8.675e-01,1.342e-14
8.686e-01,3.338e-14
8.696e-01,8.224e-14
8.706e-01,2.003e-13
8.716e-01,4.819e-13
8.726e-01,1.144e-12
8.736e-01,2.680e-12
8.746e-01,6.191e-12
8.756e-01,1.410e-11
8.766e-01,3.165e-11
8.776e-01,7.001e-11
8.786e-01,1.526e-10
8.796e-01,3.275e-10
8.806e-01,6.924e-10
8.816e-01,1.441e-09
8.827e-01,2.954e-09
8.837e-01,5.958e-09
8.847e-01,1.183e-08
8.857e-01,2.309e-08
8.867e-01,4.436e-08
8.877e-01,8.380e-08
8.887e-01,1.557e-07
8.897e-01,2.842e-07
8.907e-01,5.100e-07
8.917e-01,8.992e-07
8.927e-01,1.557e-06
8.937e-01,2.649e-06
8.947e-01,4.425e-06
8.957e-01,7.256e-06
8.968e-01,1.168e-05
8.978e-01,1.844e-05
8.988e-01,2.857e-05
8.998e-01,4.341e-05
9.008e-01,6.468e-05
9.018e-01,9.447e-05
9.028e-01,1.353e-04
9.038e-01,1.898e-04
9.048e-01,2.609e-04
9.058e-01,3.514e-04
9.068e-01,4.636e-04
9.078e-01,5.992e-04
9.088e-01,7.587e-04
9.098e-01,9.411e-04
9.109e-01,1.144e-03
9.119e-01,1.363e-03
9.129e-01,1.594e-03
9.139e-01,1.829e-03
9.149e-01,2.063e-03
9.159e-01,2.292e-03
9.169e-01,2.511e-03
9.179e-01,2.721e-03
9.189e-01,2.924e-03
9.199e-01,3.127e-03
9.209e-01,3.337e-03
9.219e-01,3.567e-03
9.229e-01,3.826e-03
9.240e-01,4.126e-03
9.250e-01,4.476e-03
9.260e-01,4.885e-03
9.270e-01,5.360e-03
9.280e-01,5.909e-03
9.290e-01,6.540e-03
9.300e-01,7.269e-03
9.310e-01,8.118e-03
9.320e-01,9.121e-03
9.330e-01,1.032e-02
9.340e-01,1.179e-02
9.350e-01,1.359e-02
9.360e-01,1.584e-02
9.370e-01,1.865e-02
9.381e-01,2.217e-02
9.391e-01,2.657e-02
9.401e-01,3.205e-02
9.411e-01,3.888e-02
9.421e-01,4.735e-02
9.431e-01,5.785e-02
9.441e-01,7.086e-02
9.451e-01,8.700e-02
9.461e-01,1.070e-01
9.471e-01,1.320e-01
9.481e-01,1.631e-01
9.491e-01,2.020e-01
9.501e-01,2.508e-01
9.511e-01,3.122e-01
9.522e-01,3.893e-01
9.532e-01,4.864e-01
9.542e-01,6.087e-01
9.552e-01,7.624e-01
9.562e-01,9.553e-01
9.572e-01,1.197e+00
9.582e-01,1.499e+00
9.592e-01,1.875e+00
9.602e-01,2.341e+00
9.612e-01,2.916e+00
9.622e-01,3.621e+00
9.632e-01,4.481e+00
9.642e-01,5.524e+00
9.652e-01,6.779e+00
9.663e-01,8.277e+00
9.673e-01,1.005e+01
9.683e-01,1.213e+01
9.693e-01,1.454e+01
9.703e-01,1.731e+01
9.713e-01,2.045e+01
9.723e-01,2.395e+01
9.733e-01,2.780e+01
9.743e-01,3.195e+01
9.753e-01,3.633e+01
9.763e-01,4.083e+01
9.773e-01,4.531e+01
9.783e-01,4.959e+01
9.794e-01,5.347e+01
9.804e-01,5.669e+01
9.814e-01,5.900e+01
9.824e-01,6.017e+01
9.834e-01,5.997e+01
9.844e-01,5.825e+01
9.854e-01,5.496e+01
9.864e-01,5.016e+01
9.874e-01,4.405e+01
9.884e-01,3.700e+01
9.894e-01,2.947e+01
9.904e-01,2.204e+01
9.914e-01,1.526e+01
9.924e-01,9.589e+00
9.935e-01,5.323e+00
9.945e-01,2.504e+00
9.955e-01,9.344e-01
9.965e-01,2.459e-01
9.975e-01,3.605e-02
9.985e-01,1.597e-03
9.995e-01,1.269e-06
