transmittance,probability_density
7.835e-01,1.766e-26
7.845e-01,2.771e-26
7.856e-01,4.344e-26
7.867e-01,6.804e-26
7.878e-01,1.065e-25
7.889e-01,1.665e-25
7.900e-01,2.602e-25
7.910e-01,4.063e-25
7.921e-01,6.339e-25
7.932e-01,9.881e-25
7.943e-01,1.539e-24
7.954e-01,2.396e-24
7.965e-01,3.726e-24
7.976e-01,5.790e-24
7.986e-01,8.991e-24
7.997e-01,1.395e-23
8.008e-01,2.163e-23
8.019e-01,3.350e-23
8.030e-01,5.186e-23
8.041e-01,8.021e-23
8.052e-01,1.240e-22
8.062e-01,1.914e-22
8.073e-01,2.954e-22
8.084e-01,4.556e-22
8.095e-01,7.020e-22
8.106e-01,1.081e-21
8.117e-01,1.664e-21
8.128e-01,2.562e-21
8.138e-01,3.949e-21
8.149e-01,6.100e-21
8.160e-01,9.474e-21
8.171e-01,1.487e-20
8.182e-01,2.383e-20
8.193e-01,3.951e-20
8.204e-01,6.919e-20
8.214e-01,1.306e-19
8.225e-01,2.693e-19
8.236e-01,6.041e-19
8.247e-01,1.450e-18
8.258e-01,3.636e-18
8.269e-01,9.342e-18
8.280e-01,2.423e-17
8.290e-01,6.286e-17
8.301e-01,1.622e-16
8.312e-01,4.152e-16
8.323e-01,1.052e-15
8.334e-01,2.633e-15
8.345e-01,6.514e-15
8.356e-01,1.591e-14
8.366e-01,3.837e-14
8.377e-01,9.130e-14
8.388e-01,2.144e-13
8.399e-01,4.967e-13
8.410e-01,1.135e-12
8.421e-01,2.558e-12
8.432e-01,5.685e-12
8.442e-01,1.246e-11
8.453e-01,2.691e-11
8.464e-01,5.730e-11
8.475e-01,1.202e-10
8.486e-01,2.486e-10
8.497e-01,5.064e-10
8.507e-01,1.016e-09
8.518e-01,2.008e-09
8.529e-01,3.908e-09
8.540e-01,7.488e-09
8.551e-01,1.412e-08
8.562e-01,2.621e-08
8.573e-01,4.788e-08
8.583e-01,8.602e-08
8.594e-01,1.520e-07
8.605e-01,2.642e-07
8.616e-01,4.516e-07
8.627e-01,7.585e-07
8.638e-01,1.252e-06
8.649e-01,2.031e-06
8.659e-01,3.237e-06
8.670e-01,5.066e-06
8.681e-01,7.784e-06
8.692e-01,1.174e-05
8.703e-01,1.738e-05
8.714e-01,2.525e-05
8.725e-01,3.598e-05
8.735e-01,5.027e-05
8.746e-01,6.888e-05
8.757e-01,9.249e-05
8.768e-01,1.217e-04
8.779e-01,1.570e-04
8.790e-01,1.982e-04
8.801e-01,2.452e-04
8.811e-01,2.971e-04
8.822e-01,3.524e-04
8.833e-01,4.095e-04
8.844e-01,4.660e-04
8.855e-01,5.197e-04
8.866e-01,5.685e-04
8.877e-01,6.106e-04
8.887e-01,6.451e-04
8.898e-01,6.721e-04
8.909e-01,6.930e-04
8.920e-01,7.103e-04
8.931e-01,7.276e-04
8.942e-01,7.492e-04
8.953e-01,7.800e-04
8.963e-01,8.245e-04
8.974e-01,8.866e-04
8.985e-01,9.693e-04
8.996e-01,1.074e-03
9.007e-01,1.201e-03
9.018e-01,1.350e-03
9.029e-01,1.517e-03
9.039e-01,1.701e-03
9.050e-01,1.899e-03
9.061e-01,2.108e-03
9.072e-01,2.329e-03
9.083e-01,2.564e-03
9.094e-01,2.815e-03
9.104e-01,3.089e-03
9.115e-01,3.396e-03
9.126e-01,3.747e-03
9.137e-01,4.156e-03
9.148e-01,4.638e-03
9.159e-01,5.210e-03
9.170e-01,5.888e-03
9.180e-01,6.689e-03
9.191e-01,7.632e-03
9.202e-01,8.736e-03
9.213e-01,1.002e-02
9.224e-01,1.151e-02
9.235e-01,1.324e-02
9.246e-01,1.524e-02
9.256e-01,1.758e-02
9.267e-01,2.032e-02
9.278e-01,2.356e-02
9.289e-01,2.742e-02
9.300e-01,3.205e-02
9.311e-01,3.766e-02
9.322e-01,4.449e-02
9.332e-01,5.285e-02
9.343e-01,6.310e-02
9.354e-01,7.573e-02
9.365e-01,9.128e-02
9.376e-01,1.105e-01
9.387e-01,1.342e-01
9.398e-01,1.634e-01
9.408e-01,1.995e-01
9.419e-01,2.440e-01
9.430e-01,2.989e-01
9.441e-01,3.666e-01
9.452e-01,4.499e-01
9.463e-01,5.523e-01
9.474e-01,6.781e-01
9.484e-01,8.323e-01
9.495e-01,1.021e+00
9.506e-01,1.251e+00
9.517e-01,1.531e+00
9.528e-01,1.870e+00
9.539e-01,2.281e+00
9.550e-01,2.774e+00
9.560e-01,3.366e+00
9.571e-01,4.072e+00
9.582e-01,4.909e+00
9.593e-01,5.896e+00
9.604e-01,7.052e+00
9.615e-01,8.398e+00
9.626e-01,9.952e+00
9.636e-01,1.173e+01
9.647e-01,1.375e+01
9.658e-01,1.602e+01
9.669e-01,1.854e+01
9.680e-01,2.131e+01
9.691e-01,2.431e+01
9.701e-01,2.750e+01
9.712e-01,3.084e+01
9.723e-01,3.425e+01
9.734e-01,3.765e+01
9.745e-01,4.094e+01
9.756e-01,4.397e+01
9.767e-01,4.662e+01
9.777e-01,4.871e+01
9.788e-01,5.010e+01
9.799e-01,5.063e+01
9.810e-01,5.018e+01
9.821e-01,4.868e+01
9.832e-01,4.608e+01
9.843e-01,4.244e+01
9.853e-01,3.787e+01
9.864e-01,3.259e+01
9.875e-01,2.689e+01
9.886e-01,2.111e+01
9.897e-01,1.561e+01
9.908e-01,1.073e+01
9.919e-01,6.733e+00
9.929e-01,3.758e+00
9.940e-01,1.795e+00
9.951e-01,6.887e-01
9.962e-01,1.902e-01
9.973e-01,3.025e-02
9.984e-01,1.558e-03
9.995e-01,1.817e-06
