transmittance,probability_density
8.240e-01,9.358e-42
8.249e-01,1.824e-41
8.258e-01,3.550e-41
8.266e-01,6.906e-41
8.275e-01,1.342e-40
8.284e-01,2.606e-40
8.293e-01,5.054e-40
8.302e-01,9.795e-40
8.310e-01,1.896e-39
8.319e-01,3.668e-39
8.328e-01,7.088e-39
8.337e-01,1.368e-38
8.346e-01,2.640e-38
8.355e-01,5.087e-38
8.363e-01,9.793e-38
8.372e-01,1.884e-37
8.381e-01,3.620e-37
8.390e-01,6.949e-37
8.399e-01,1.333e-36
8.407e-01,2.554e-36
8.416e-01,4.889e-36
8.425e-01,9.352e-36
8.434e-01,1.787e-35
8.443e-01,3.411e-35
8.452e-01,6.506e-35
8.460e-01,1.240e-34
8.469e-01,2.360e-34
8.478e-01,4.488e-34
8.487e-01,8.527e-34
8.496e-01,1.619e-33
8.505e-01,3.069e-33
8.513e-01,5.815e-33
8.522e-01,1.101e-32
8.531e-01,2.081e-32
8.540e-01,3.932e-32
8.549e-01,7.421e-32
8.557e-01,1.399e-31
8.566e-01,2.636e-31
8.575e-01,4.960e-31
8.584e-01,9.326e-31
8.593e-01,1.752e-30
8.602e-01,3.287e-30
8.610e-01,6.162e-30
8.619e-01,1.154e-29
8.628e-01,2.159e-29
8.637e-01,4.036e-29
8.646e-01,7.536e-29
8.655e-01,1.406e-28
8.663e-01,2.620e-28
8.672e-01,4.878e-28
8.681e-01,9.073e-28
8.690e-01,1.686e-27
8.699e-01,3.129e-27
8.707e-01,5.803e-27
8.716e-01,1.075e-26
8.725e-01,1.990e-26
8.734e-01,3.679e-26
8.743e-01,6.795e-26
8.752e-01,1.254e-25
8.760e-01,2.311e-25
8.769e-01,4.256e-25
8.778e-01,7.828e-25
8.787e-01,1.439e-24
8.796e-01,2.641e-24
8.805e-01,4.843e-24
8.813e-01,8.872e-24
8.822e-01,1.624e-23
8.831e-01,2.968e-23
8.840e-01,5.421e-23
8.849e-01,9.889e-23
8.857e-01,1.802e-22
8.866e-01,3.281e-22
8.875e-01,5.966e-22
8.884e-01,1.084e-21
8.893e-01,1.967e-21
8.902e-01,3.566e-21
8.910e-01,6.459e-21
8.919e-01,1.169e-20
8.928e-01,2.116e-20
8.937e-01,3.832e-20
8.946e-01,6.961e-20
8.955e-01,1.273e-19
8.963e-01,2.362e-19
8.972e-01,4.505e-19
8.981e-01,9.015e-19
8.990e-01,1.941e-18
8.999e-01,4.595e-18
9.007e-01,1.200e-17
9.016e-01,3.402e-17
9.025e-01,1.018e-16
9.034e-01,3.131e-16
9.043e-01,9.719e-16
9.052e-01,3.009e-15
9.060e-01,9.224e-15
9.069e-01,2.789e-14
9.078e-01,8.301e-14
9.087e-01,2.428e-13
9.096e-01,6.971e-13
9.104e-01,1.964e-12
9.113e-01,5.427e-12
9.122e-01,1.470e-11
9.131e-01,3.901e-11
9.140e-01,1.014e-10
9.149e-01,2.581e-10
9.157e-01,6.430e-10
9.166e-01,1.567e-09
9.175e-01,3.735e-09
9.184e-01,8.704e-09
9.193e-01,1.982e-08
9.202e-01,4.408e-08
9.210e-01,9.574e-08
9.219e-01,2.029e-07
9.228e-01,4.196e-07
9.237e-01,8.460e-07
9.246e-01,1.663e-06
9.254e-01,3.183e-06
9.263e-01,5.933e-06
9.272e-01,1.077e-05
9.281e-01,1.900e-05
9.290e-01,3.262e-05
9.299e-01,5.444e-05
9.307e-01,8.827e-05
9.316e-01,1.390e-04
9.325e-01,2.126e-04
9.334e-01,3.158e-04
9.343e-01,4.555e-04
9.352e-01,6.380e-04
9.360e-01,8.683e-04
9.369e-01,1.149e-03
9.378e-01,1.480e-03
9.387e-01,1.859e-03
9.396e-01,2.283e-03
9.404e-01,2.747e-03
9.413e-01,3.251e-03
9.422e-01,3.798e-03
9.431e-01,4.399e-03
9.440e-01,5.070e-03
9.449e-01,5.833e-03
9.457e-01,6.717e-03
9.466e-01,7.753e-03
9.475e-01,8.977e-03
9.484e-01,1.043e-02
9.493e-01,1.215e-02
9.502e-01,1.421e-02
9.510e-01,1.667e-02
9.519e-01,1.963e-02
9.528e-01,2.320e-02
9.537e-01,2.750e-02
9.546e-01,3.271e-02
9.554e-01,3.907e-02
9.563e-01,4.688e-02
9.572e-01,5.659e-02
9.581e-01,6.881e-02
9.590e-01,8.442e-02
9.599e-01,1.046e-01
9.607e-01,1.311e-01
9.616e-01,1.660e-01
9.625e-01,2.125e-01
9.634e-01,2.744e-01
9.643e-01,3.572e-01
9.652e-01,4.677e-01
9.660e-01,6.154e-01
9.669e-01,8.126e-01
9.678e-01,1.076e+00
9.687e-01,1.425e+00
9.696e-01,1.889e+00
9.704e-01,2.501e+00
9.713e-01,3.306e+00
9.722e-01,4.356e+00
9.731e-01,5.717e+00
9.740e-01,7.462e+00
9.749e-01,9.678e+00
9.757e-01,1.246e+01
9.766e-01,1.589e+01
9.775e-01,2.008e+01
9.784e-01,2.508e+01
9.793e-01,3.094e+01
9.801e-01,3.763e+01
9.810e-01,4.506e+01
9.819e-01,5.304e+01
9.828e-01,6.124e+01
9.837e-01,6.922e+01
9.846e-01,7.638e+01
9.854e-01,8.206e+01
9.863e-01,8.553e+01
9.872e-01,8.614e+01
9.881e-01,8.342e+01
9.890e-01,7.720e+01
9.899e-01,6.776e+01
9.907e-01,5.587e+01
9.916e-01,4.274e+01
9.925e-01,2.983e+01
9.934e-01,1.857e+01
9.943e-01,9.975e+00
9.951e-01,4.402e+00
9.960e-01,1.475e+00
9.969e-01,3.265e-01
9.978e-01,3.602e-02
9.987e-01,9.579e-04
9.996e-01,2.128e-07
