transmittance,probability_density
3.833e-05,5.520e+02
1.150e-04,5.827e+02
1.917e-04,5.984e+02
2.683e-04,6.034e+02
3.450e-04,6.004e+02
4.217e-04,5.912e+02
4.984e-04,5.770e+02
5.750e-04,5.591e+02
6.517e-04,5.384e+02
7.284e-04,5.157e+02
8.050e-04,4.917e+02
8.817e-04,4.669e+02
9.584e-04,4.419e+02
1.035e-03,4.169e+02
1.112e-03,3.923e+02
1.188e-03,3.683e+02
1.265e-03,3.450e+02
1.342e-03,3.227e+02
1.418e-03,3.013e+02
1.495e-03,2.809e+02
1.572e-03,2.615e+02
1.648e-03,2.432e+02
1.725e-03,2.260e+02
1.802e-03,2.098e+02
1.878e-03,1.946e+02
1.955e-03,1.804e+02
2.032e-03,1.671e+02
2.108e-03,1.547e+02
2.185e-03,1.431e+02
2.262e-03,1.324e+02
2.338e-03,1.224e+02
2.415e-03,1.131e+02
2.492e-03,1.045e+02
2.568e-03,9.648e+01
2.645e-03,8.908e+01
2.722e-03,8.223e+01
2.798e-03,7.588e+01
2.875e-03,7.002e+01
2.952e-03,6.459e+01
3.028e-03,5.957e+01
3.105e-03,5.494e+01
3.182e-03,5.066e+01
3.258e-03,4.671e+01
3.335e-03,4.306e+01
3.412e-03,3.969e+01
3.488e-03,3.658e+01
3.565e-03,3.371e+01
3.642e-03,3.107e+01
3.718e-03,2.863e+01
3.795e-03,2.638e+01
3.872e-03,2.430e+01
3.949e-03,2.239e+01
4.025e-03,2.063e+01
4.102e-03,1.900e+01
4.179e-03,1.750e+01
4.255e-03,1.612e+01
4.332e-03,1.485e+01
4.409e-03,1.368e+01
4.485e-03,1.260e+01
4.562e-03,1.160e+01
4.639e-03,1.068e+01
4.715e-03,9.838e+00
4.792e-03,9.059e+00
4.869e-03,8.342e+00
4.945e-03,7.682e+00
5.022e-03,7.073e+00
5.099e-03,6.513e+00
5.175e-03,5.996e+00
5.252e-03,5.521e+00
5.329e-03,5.083e+00
5.405e-03,4.680e+00
5.482e-03,4.308e+00
5.559e-03,3.966e+00
5.635e-03,3.652e+00
5.712e-03,3.361e+00
5.789e-03,3.094e+00
5.865e-03,2.849e+00
5.942e-03,2.622e+00
6.019e-03,2.414e+00
6.095e-03,2.222e+00
6.172e-03,2.045e+00
6.249e-03,1.882e+00
6.325e-03,1.732e+00
6.402e-03,1.595e+00
6.479e-03,1.468e+00
6.555e-03,1.351e+00
6.632e-03,1.243e+00
6.709e-03,1.144e+00
6.785e-03,1.053e+00
6.862e-03,9.689e-01
6.939e-03,8.917e-01
7.015e-03,8.205e-01
7.092e-03,7.551e-01
7.169e-03,6.948e-01
7.245e-03,6.394e-01
7.322e-03,5.883e-01
7.399e-03,5.414e-01
7.475e-03,4.981e-01
7.552e-03,4.583e-01
7.629e-03,4.217e-01
7.705e-03,3.880e-01
7.782e-03,3.570e-01
7.859e-03,3.284e-01
7.935e-03,3.022e-01
8.012e-03,2.780e-01
8.089e-03,2.558e-01
8.165e-03,2.353e-01
8.242e-03,2.165e-01
8.319e-03,1.991e-01
8.395e-03,1.832e-01
8.472e-03,1.685e-01
8.549e-03,1.550e-01
8.625e-03,1.426e-01
8.702e-03,1.312e-01
8.779e-03,1.206e-01
8.855e-03,1.110e-01
8.932e-03,1.021e-01
9.009e-03,9.389e-02
9.085e-03,8.635e-02
9.162e-03,7.942e-02
9.239e-03,7.305e-02
9.315e-03,6.719e-02
9.392e-03,6.179e-02
9.469e-03,5.683e-02
9.545e-03,5.226e-02
9.622e-03,4.807e-02
9.699e-03,4.420e-02
9.775e-03,4.065e-02
9.852e-03,3.738e-02
9.929e-03,3.438e-02
1.001e-02,3.161e-02
1.008e-02,2.907e-02
1.016e-02,2.673e-02
1.024e-02,2.458e-02
1.031e-02,2.260e-02
1.039e-02,2.078e-02
1.047e-02,1.911e-02
1.054e-02,1.757e-02
1.062e-02,1.616e-02
1.070e-02,1.486e-02
1.077e-02,1.366e-02
1.085e-02,1.256e-02
1.093e-02,1.155e-02
1.100e-02,1.062e-02
1.108e-02,9.761e-03
1.116e-02,8.974e-03
1.123e-02,8.250e-03
1.131e-02,7.585e-03
1.139e-02,6.973e-03
1.146e-02,6.411e-03
1.154e-02,5.893e-03
1.162e-02,5.418e-03
1.169e-02,4.980e-03
1.177e-02,4.578e-03
1.185e-02,4.209e-03
1.192e-02,3.869e-03
1.200e-02,3.557e-03
1.208e-02,3.269e-03
1.215e-02,3.005e-03
1.223e-02,2.762e-03
1.231e-02,2.539e-03
1.238e-02,2.334e-03
1.246e-02,2.145e-03
1.254e-02,1.972e-03
1.261e-02,1.813e-03
1.269e-02,1.666e-03
1.277e-02,1.531e-03
1.284e-02,1.407e-03
1.292e-02,1.294e-03
1.300e-02,1.189e-03
1.307e-02,1.093e-03
1.315e-02,1.004e-03
1.323e-02,9.230e-04
1.330e-02,8.483e-04
1.338e-02,7.796e-04
1.346e-02,7.165e-04
1.353e-02,6.585e-04
1.361e-02,6.052e-04
1.369e-02,5.561e-04
1.376e-02,5.111e-04
1.384e-02,4.697e-04
1.392e-02,4.316e-04
1.399e-02,3.967e-04
1.407e-02,3.645e-04
1.415e-02,3.350e-04
1.422e-02,3.078e-04
1.430e-02,2.829e-04
1.438e-02,2.599e-04
1.445e-02,2.389e-04
1.453e-02,2.195e-04
1.461e-02,2.017e-04
1.468e-02,1.853e-04
1.476e-02,1.703e-04
1.484e-02,1.565e-04
1.491e-02,1.438e-04
1.499e-02,1.321e-04
1.507e-02,1.214e-04
1.514e-02,1.115e-04
1.522e-02,1.025e-04
1.530e-02,9.416e-05
