transmittance,probability_density
1.343e-03,4.354e+00
4.028e-03,5.728e+00
6.714e-03,6.520e+00
9.400e-03,7.100e+00
1.209e-02,7.569e+00
1.477e-02,7.965e+00
1.746e-02,8.304e+00
2.014e-02,8.592e+00
2.283e-02,8.834e+00
2.551e-02,9.030e+00
2.820e-02,9.182e+00
3.088e-02,9.291e+00
3.357e-02,9.358e+00
3.626e-02,9.385e+00
3.894e-02,9.375e+00
4.163e-02,9.330e+00
4.431e-02,9.254e+00
4.700e-02,9.149e+00
4.968e-02,9.017e+00
5.237e-02,8.863e+00
5.506e-02,8.689e+00
5.774e-02,8.497e+00
6.043e-02,8.291e+00
6.311e-02,8.073e+00
6.580e-02,7.845e+00
6.848e-02,7.609e+00
7.117e-02,7.368e+00
7.386e-02,7.123e+00
7.654e-02,6.876e+00
7.923e-02,6.628e+00
8.191e-02,6.381e+00
8.460e-02,6.135e+00
8.728e-02,5.892e+00
8.997e-02,5.652e+00
9.265e-02,5.416e+00
9.534e-02,5.186e+00
9.803e-02,4.960e+00
1.007e-01,4.740e+00
1.034e-01,4.527e+00
1.061e-01,4.319e+00
1.088e-01,4.118e+00
1.115e-01,3.924e+00
1.141e-01,3.736e+00
1.168e-01,3.555e+00
1.195e-01,3.380e+00
1.222e-01,3.213e+00
1.249e-01,3.052e+00
1.276e-01,2.897e+00
1.303e-01,2.749e+00
1.329e-01,2.607e+00
1.356e-01,2.472e+00
1.383e-01,2.342e+00
1.410e-01,2.218e+00
1.437e-01,2.100e+00
1.464e-01,1.987e+00
1.491e-01,1.879e+00
1.517e-01,1.777e+00
1.544e-01,1.680e+00
1.571e-01,1.587e+00
1.598e-01,1.499e+00
1.625e-01,1.415e+00
1.652e-01,1.335e+00
1.679e-01,1.260e+00
1.705e-01,1.188e+00
1.732e-01,1.120e+00
1.759e-01,1.056e+00
1.786e-01,9.948e-01
1.813e-01,9.370e-01
1.840e-01,8.822e-01
1.867e-01,8.304e-01
1.893e-01,7.814e-01
1.920e-01,7.351e-01
1.947e-01,6.913e-01
1.974e-01,6.499e-01
2.001e-01,6.109e-01
2.028e-01,5.739e-01
2.055e-01,5.391e-01
2.081e-01,5.062e-01
2.108e-01,4.752e-01
2.135e-01,4.460e-01
2.162e-01,4.184e-01
2.189e-01,3.924e-01
2.216e-01,3.680e-01
2.243e-01,3.449e-01
2.269e-01,3.232e-01
2.296e-01,3.028e-01
2.323e-01,2.836e-01
2.350e-01,2.655e-01
2.377e-01,2.485e-01
2.404e-01,2.326e-01
2.431e-01,2.176e-01
2.457e-01,2.035e-01
2.484e-01,1.902e-01
2.511e-01,1.778e-01
2.538e-01,1.661e-01
2.565e-01,1.552e-01
2.592e-01,1.449e-01
2.619e-01,1.353e-01
2.645e-01,1.262e-01
2.672e-01,1.178e-01
2.699e-01,1.098e-01
2.726e-01,1.024e-01
2.753e-01,9.545e-02
2.780e-01,8.894e-02
2.807e-01,8.285e-02
2.833e-01,7.715e-02
2.860e-01,7.183e-02
2.887e-01,6.684e-02
2.914e-01,6.219e-02
2.941e-01,5.784e-02
2.968e-01,5.377e-02
2.994e-01,4.998e-02
3.021e-01,4.644e-02
3.048e-01,4.313e-02
3.075e-01,4.005e-02
3.102e-01,3.717e-02
3.129e-01,3.449e-02
3.156e-01,3.199e-02
3.182e-01,2.967e-02
3.209e-01,2.750e-02
3.236e-01,2.548e-02
3.263e-01,2.360e-02
3.290e-01,2.186e-02
3.317e-01,2.023e-02
3.344e-01,1.872e-02
3.370e-01,1.732e-02
3.397e-01,1.601e-02
3.424e-01,1.480e-02
3.451e-01,1.367e-02
3.478e-01,1.263e-02
3.505e-01,1.166e-02
3.532e-01,1.076e-02
3.558e-01,9.930e-03
3.585e-01,9.158e-03
3.612e-01,8.443e-03
3.639e-01,7.780e-03
3.666e-01,7.167e-03
3.693e-01,6.600e-03
3.720e-01,6.075e-03
3.746e-01,5.589e-03
3.773e-01,5.141e-03
3.800e-01,4.726e-03
3.827e-01,4.343e-03
3.854e-01,3.990e-03
3.881e-01,3.663e-03
3.908e-01,3.362e-03
3.934e-01,3.085e-03
3.961e-01,2.829e-03
3.988e-01,2.593e-03
4.015e-01,2.376e-03
4.042e-01,2.176e-03
4.069e-01,1.992e-03
4.096e-01,1.823e-03
4.122e-01,1.667e-03
4.149e-01,1.524e-03
4.176e-01,1.393e-03
4.203e-01,1.273e-03
4.230e-01,1.162e-03
4.257e-01,1.060e-03
4.284e-01,9.671e-04
4.310e-01,8.817e-04
4.337e-01,8.035e-04
4.364e-01,7.319e-04
4.391e-01,6.663e-04
4.418e-01,6.063e-04
4.445e-01,5.514e-04
4.472e-01,5.013e-04
4.498e-01,4.555e-04
4.525e-01,4.136e-04
4.552e-01,3.754e-04
4.579e-01,3.406e-04
4.606e-01,3.088e-04
4.633e-01,2.799e-04
4.660e-01,2.535e-04
4.686e-01,2.295e-04
4.713e-01,2.077e-04
4.740e-01,1.878e-04
4.767e-01,1.697e-04
4.794e-01,1.533e-04
4.821e-01,1.384e-04
4.848e-01,1.249e-04
4.874e-01,1.126e-04
4.901e-01,1.015e-04
4.928e-01,9.142e-05
4.955e-01,8.230e-05
4.982e-01,7.404e-05
5.009e-01,6.657e-05
5.036e-01,5.982e-05
5.062e-01,5.372e-05
5.089e-01,4.821e-05
5.116e-01,4.324e-05
5.143e-01,3.876e-05
5.170e-01,3.472e-05
5.197e-01,3.108e-05
5.224e-01,2.780e-05
5.250e-01,2.486e-05
5.277e-01,2.221e-05
5.304e-01,1.983e-05
5.331e-01,1.769e-05
5.358e-01,1.577e-05
