transmittance,probability_density
2.177e-03,2.307e-01
6.532e-03,4.788e-01
1.089e-02,6.637e-01
1.524e-02,8.158e-01
1.959e-02,9.470e-01
2.395e-02,1.064e+00
2.830e-02,1.170e+00
3.266e-02,1.269e+00
3.701e-02,1.362e+00
4.137e-02,1.452e+00
4.572e-02,1.539e+00
5.008e-02,1.624e+00
5.443e-02,1.708e+00
5.878e-02,1.792e+00
6.314e-02,1.876e+00
6.749e-02,1.961e+00
7.185e-02,2.045e+00
7.620e-02,2.129e+00
8.056e-02,2.213e+00
8.491e-02,2.297e+00
8.926e-02,2.380e+00
9.362e-02,2.462e+00
9.797e-02,2.542e+00
1.023e-01,2.621e+00
1.067e-01,2.696e+00
1.110e-01,2.769e+00
1.154e-01,2.839e+00
1.197e-01,2.904e+00
1.241e-01,2.966e+00
1.285e-01,3.023e+00
1.328e-01,3.076e+00
1.372e-01,3.124e+00
1.415e-01,3.167e+00
1.459e-01,3.205e+00
1.502e-01,3.238e+00
1.546e-01,3.265e+00
1.589e-01,3.288e+00
1.633e-01,3.305e+00
1.676e-01,3.317e+00
1.720e-01,3.325e+00
1.764e-01,3.327e+00
1.807e-01,3.325e+00
1.851e-01,3.318e+00
1.894e-01,3.307e+00
1.938e-01,3.292e+00
1.981e-01,3.273e+00
2.025e-01,3.250e+00
2.068e-01,3.224e+00
2.112e-01,3.195e+00
2.155e-01,3.162e+00
2.199e-01,3.127e+00
2.242e-01,3.089e+00
2.286e-01,3.048e+00
2.330e-01,3.006e+00
2.373e-01,2.961e+00
2.417e-01,2.914e+00
2.460e-01,2.866e+00
2.504e-01,2.817e+00
2.547e-01,2.766e+00
2.591e-01,2.714e+00
2.634e-01,2.660e+00
2.678e-01,2.607e+00
2.721e-01,2.552e+00
2.765e-01,2.497e+00
2.809e-01,2.441e+00
2.852e-01,2.385e+00
2.896e-01,2.329e+00
2.939e-01,2.273e+00
2.983e-01,2.216e+00
3.026e-01,2.160e+00
3.070e-01,2.104e+00
3.113e-01,2.048e+00
3.157e-01,1.992e+00
3.200e-01,1.937e+00
3.244e-01,1.882e+00
3.288e-01,1.828e+00
3.331e-01,1.774e+00
3.375e-01,1.721e+00
3.418e-01,1.669e+00
3.462e-01,1.617e+00
3.505e-01,1.566e+00
3.549e-01,1.516e+00
3.592e-01,1.467e+00
3.636e-01,1.418e+00
3.679e-01,1.370e+00
3.723e-01,1.323e+00
3.767e-01,1.277e+00
3.810e-01,1.232e+00
3.854e-01,1.188e+00
3.897e-01,1.145e+00
3.941e-01,1.103e+00
3.984e-01,1.062e+00
4.028e-01,1.022e+00
4.071e-01,9.826e-01
4.115e-01,9.444e-01
4.158e-01,9.072e-01
4.202e-01,8.710e-01
4.245e-01,8.357e-01
4.289e-01,8.015e-01
4.333e-01,7.682e-01
4.376e-01,7.358e-01
4.420e-01,7.045e-01
4.463e-01,6.741e-01
4.507e-01,6.446e-01
4.550e-01,6.161e-01
4.594e-01,5.885e-01
4.637e-01,5.618e-01
4.681e-01,5.360e-01
4.724e-01,5.111e-01
4.768e-01,4.870e-01
4.812e-01,4.638e-01
4.855e-01,4.415e-01
4.899e-01,4.199e-01
4.942e-01,3.992e-01
4.986e-01,3.793e-01
5.029e-01,3.601e-01
5.073e-01,3.416e-01
5.116e-01,3.239e-01
5.160e-01,3.070e-01
5.203e-01,2.907e-01
5.247e-01,2.751e-01
5.291e-01,2.601e-01
5.334e-01,2.458e-01
5.378e-01,2.321e-01
5.421e-01,2.190e-01
5.465e-01,2.065e-01
5.508e-01,1.946e-01
5.552e-01,1.832e-01
5.595e-01,1.724e-01
5.639e-01,1.621e-01
5.682e-01,1.523e-01
5.726e-01,1.429e-01
5.770e-01,1.340e-01
5.813e-01,1.256e-01
5.857e-01,1.176e-01
5.900e-01,1.100e-01
5.944e-01,1.028e-01
5.987e-01,9.604e-02
6.031e-01,8.960e-02
6.074e-01,8.352e-02
6.118e-01,7.778e-02
6.161e-01,7.236e-02
6.205e-01,6.726e-02
6.248e-01,6.245e-02
6.292e-01,5.792e-02
6.336e-01,5.367e-02
6.379e-01,4.968e-02
6.423e-01,4.593e-02
6.466e-01,4.242e-02
6.510e-01,3.913e-02
6.553e-01,3.605e-02
6.597e-01,3.317e-02
6.640e-01,3.049e-02
6.684e-01,2.799e-02
6.727e-01,2.566e-02
6.771e-01,2.349e-02
6.815e-01,2.148e-02
6.858e-01,1.961e-02
6.902e-01,1.788e-02
6.945e-01,1.627e-02
6.989e-01,1.479e-02
7.032e-01,1.342e-02
7.076e-01,1.216e-02
7.119e-01,1.100e-02
7.163e-01,9.934e-03
7.206e-01,8.955e-03
7.250e-01,8.057e-03
7.294e-01,7.236e-03
7.337e-01,6.486e-03
7.381e-01,5.802e-03
7.424e-01,5.180e-03
7.468e-01,4.615e-03
7.511e-01,4.102e-03
7.555e-01,3.638e-03
7.598e-01,3.219e-03
7.642e-01,2.841e-03
7.685e-01,2.501e-03
7.729e-01,2.197e-03
7.773e-01,1.924e-03
7.816e-01,1.680e-03
7.860e-01,1.463e-03
7.903e-01,1.270e-03
7.947e-01,1.099e-03
7.990e-01,9.475e-04
8.034e-01,8.144e-04
8.077e-01,6.974e-04
8.121e-01,5.950e-04
8.164e-01,5.057e-04
8.208e-01,4.280e-04
8.251e-01,3.606e-04
8.295e-01,3.025e-04
8.339e-01,2.526e-04
8.382e-01,2.098e-04
8.426e-01,1.734e-04
8.469e-01,1.425e-04
8.513e-01,1.164e-04
8.556e-01,9.448e-05
8.600e-01,7.620e-05
8.643e-01,6.102e-05
8.687e-01,4.850e-05
