transmittance,probability_density
1.815e-03,1.286e+00
5.446e-03,1.993e+00
9.076e-03,2.435e+00
1.271e-02,2.767e+00
1.634e-02,3.040e+00
1.997e-02,3.279e+00
2.360e-02,3.495e+00
2.723e-02,3.696e+00
3.086e-02,3.885e+00
3.449e-02,4.063e+00
3.812e-02,4.232e+00
4.175e-02,4.391e+00
4.538e-02,4.539e+00
4.901e-02,4.675e+00
5.264e-02,4.800e+00
5.627e-02,4.912e+00
5.990e-02,5.010e+00
6.353e-02,5.094e+00
6.717e-02,5.164e+00
7.080e-02,5.220e+00
7.443e-02,5.261e+00
7.806e-02,5.289e+00
8.169e-02,5.303e+00
8.532e-02,5.304e+00
8.895e-02,5.293e+00
9.258e-02,5.269e+00
9.621e-02,5.235e+00
9.984e-02,5.190e+00
1.035e-01,5.135e+00
1.071e-01,5.072e+00
1.107e-01,5.001e+00
1.144e-01,4.922e+00
1.180e-01,4.837e+00
1.216e-01,4.747e+00
1.253e-01,4.651e+00
1.289e-01,4.552e+00
1.325e-01,4.448e+00
1.361e-01,4.342e+00
1.398e-01,4.233e+00
1.434e-01,4.123e+00
1.470e-01,4.011e+00
1.507e-01,3.898e+00
1.543e-01,3.784e+00
1.579e-01,3.671e+00
1.616e-01,3.557e+00
1.652e-01,3.445e+00
1.688e-01,3.333e+00
1.725e-01,3.222e+00
1.761e-01,3.112e+00
1.797e-01,3.004e+00
1.833e-01,2.898e+00
1.870e-01,2.794e+00
1.906e-01,2.691e+00
1.942e-01,2.591e+00
1.979e-01,2.493e+00
2.015e-01,2.397e+00
2.051e-01,2.303e+00
2.088e-01,2.212e+00
2.124e-01,2.123e+00
2.160e-01,2.037e+00
2.196e-01,1.953e+00
2.233e-01,1.872e+00
2.269e-01,1.793e+00
2.305e-01,1.716e+00
2.342e-01,1.642e+00
2.378e-01,1.571e+00
2.414e-01,1.502e+00
2.451e-01,1.435e+00
2.487e-01,1.370e+00
2.523e-01,1.308e+00
2.560e-01,1.248e+00
2.596e-01,1.190e+00
2.632e-01,1.135e+00
2.668e-01,1.082e+00
2.705e-01,1.030e+00
2.741e-01,9.808e-01
2.777e-01,9.334e-01
2.814e-01,8.879e-01
2.850e-01,8.443e-01
2.886e-01,8.025e-01
2.923e-01,7.624e-01
2.959e-01,7.241e-01
2.995e-01,6.874e-01
3.032e-01,6.522e-01
3.068e-01,6.186e-01
3.104e-01,5.865e-01
3.140e-01,5.558e-01
3.177e-01,5.266e-01
3.213e-01,4.986e-01
3.249e-01,4.719e-01
3.286e-01,4.465e-01
3.322e-01,4.223e-01
3.358e-01,3.992e-01
3.395e-01,3.772e-01
3.431e-01,3.563e-01
3.467e-01,3.364e-01
3.503e-01,3.175e-01
3.540e-01,2.995e-01
3.576e-01,2.824e-01
3.612e-01,2.662e-01
3.649e-01,2.508e-01
3.685e-01,2.361e-01
3.721e-01,2.223e-01
3.758e-01,2.091e-01
3.794e-01,1.967e-01
3.830e-01,1.849e-01
3.867e-01,1.737e-01
3.903e-01,1.632e-01
3.939e-01,1.532e-01
3.975e-01,1.437e-01
4.012e-01,1.348e-01
4.048e-01,1.264e-01
4.084e-01,1.184e-01
4.121e-01,1.109e-01
4.157e-01,1.038e-01
4.193e-01,9.712e-02
4.230e-01,9.082e-02
4.266e-01,8.489e-02
4.302e-01,7.931e-02
4.339e-01,7.405e-02
4.375e-01,6.911e-02
4.411e-01,6.446e-02
4.447e-01,6.009e-02
4.484e-01,5.599e-02
4.520e-01,5.214e-02
4.556e-01,4.853e-02
4.593e-01,4.515e-02
4.629e-01,4.197e-02
4.665e-01,3.900e-02
4.702e-01,3.622e-02
4.738e-01,3.361e-02
4.774e-01,3.118e-02
4.810e-01,2.890e-02
4.847e-01,2.678e-02
4.883e-01,2.479e-02
4.919e-01,2.294e-02
4.956e-01,2.121e-02
4.992e-01,1.960e-02
5.028e-01,1.810e-02
5.065e-01,1.670e-02
5.101e-01,1.541e-02
5.137e-01,1.420e-02
5.174e-01,1.308e-02
5.210e-01,1.204e-02
5.246e-01,1.107e-02
5.282e-01,1.017e-02
5.319e-01,9.344e-03
5.355e-01,8.575e-03
5.391e-01,7.863e-03
5.428e-01,7.206e-03
5.464e-01,6.598e-03
5.500e-01,6.036e-03
5.537e-01,5.518e-03
5.573e-01,5.040e-03
5.609e-01,4.600e-03
5.646e-01,4.195e-03
5.682e-01,3.822e-03
5.718e-01,3.480e-03
5.754e-01,3.165e-03
5.791e-01,2.876e-03
5.827e-01,2.611e-03
5.863e-01,2.369e-03
5.900e-01,2.147e-03
5.936e-01,1.944e-03
5.972e-01,1.758e-03
6.009e-01,1.589e-03
6.045e-01,1.434e-03
6.081e-01,1.293e-03
6.117e-01,1.165e-03
6.154e-01,1.048e-03
6.190e-01,9.425e-04
6.226e-01,8.464e-04
6.263e-01,7.592e-04
6.299e-01,6.802e-04
6.335e-01,6.087e-04
6.372e-01,5.441e-04
6.408e-01,4.857e-04
6.444e-01,4.331e-04
6.481e-01,3.857e-04
6.517e-01,3.431e-04
6.553e-01,3.047e-04
6.589e-01,2.703e-04
6.626e-01,2.395e-04
6.662e-01,2.119e-04
6.698e-01,1.872e-04
6.735e-01,1.651e-04
6.771e-01,1.454e-04
6.807e-01,1.279e-04
6.844e-01,1.123e-04
6.880e-01,9.849e-05
6.916e-01,8.622e-05
6.953e-01,7.535e-05
6.989e-01,6.574e-05
7.025e-01,5.726e-05
7.061e-01,4.978e-05
7.098e-01,4.320e-05
7.134e-01,3.742e-05
7.170e-01,3.235e-05
7.207e-01,2.792e-05
7.243e-01,2.404e-05
