transmittance,probability_density
2.500e-03,8.208e-05
7.500e-03,1.079e-03
1.250e-02,3.455e-03
1.750e-02,7.264e-03
2.250e-02,1.243e-02
2.750e-02,1.880e-02
3.250e-02,2.622e-02
3.750e-02,3.449e-02
4.250e-02,4.346e-02
4.750e-02,5.296e-02
5.250e-02,6.285e-02
5.750e-02,7.302e-02
6.250e-02,8.339e-02
6.750e-02,9.387e-02
7.250e-02,1.044e-01
7.750e-02,1.150e-01
8.250e-02,1.257e-01
8.750e-02,1.364e-01
9.250e-02,1.471e-01
9.750e-02,1.579e-01
1.025e-01,1.688e-01
1.075e-01,1.798e-01
1.125e-01,1.910e-01
1.175e-01,2.025e-01
1.225e-01,2.141e-01
1.275e-01,2.261e-01
1.325e-01,2.384e-01
1.375e-01,2.510e-01
1.425e-01,2.641e-01
1.475e-01,2.776e-01
1.525e-01,2.916e-01
1.575e-01,3.062e-01
1.625e-01,3.213e-01
1.675e-01,3.369e-01
1.725e-01,3.532e-01
1.775e-01,3.701e-01
1.825e-01,3.877e-01
1.875e-01,4.059e-01
1.925e-01,4.248e-01
1.975e-01,4.444e-01
2.025e-01,4.647e-01
2.075e-01,4.857e-01
2.125e-01,5.075e-01
2.175e-01,5.299e-01
2.225e-01,5.529e-01
2.275e-01,5.767e-01
2.325e-01,6.012e-01
2.375e-01,6.263e-01
2.425e-01,6.520e-01
2.475e-01,6.784e-01
2.525e-01,7.054e-01
2.575e-01,7.330e-01
2.625e-01,7.612e-01
2.675e-01,7.900e-01
2.725e-01,8.194e-01
2.775e-01,8.493e-01
2.825e-01,8.798e-01
2.875e-01,9.108e-01
2.925e-01,9.424e-01
2.975e-01,9.745e-01
3.025e-01,1.007e+00
3.075e-01,1.040e+00
3.125e-01,1.074e+00
3.175e-01,1.108e+00
3.225e-01,1.142e+00
3.275e-01,1.177e+00
3.325e-01,1.212e+00
3.375e-01,1.248e+00
3.425e-01,1.283e+00
3.475e-01,1.319e+00
3.525e-01,1.356e+00
3.575e-01,1.392e+00
3.625e-01,1.428e+00
3.675e-01,1.465e+00
3.725e-01,1.501e+00
3.775e-01,1.538e+00
3.825e-01,1.574e+00
3.875e-01,1.610e+00
3.925e-01,1.646e+00
3.975e-01,1.681e+00
4.025e-01,1.716e+00
4.075e-01,1.750e+00
4.125e-01,1.784e+00
4.175e-01,1.817e+00
4.225e-01,1.850e+00
4.275e-01,1.882e+00
4.325e-01,1.913e+00
4.375e-01,1.943e+00
4.425e-01,1.972e+00
4.475e-01,2.001e+00
4.525e-01,2.028e+00
4.575e-01,2.054e+00
4.625e-01,2.080e+00
4.675e-01,2.104e+00
4.725e-01,2.127e+00
4.775e-01,2.149e+00
4.825e-01,2.169e+00
4.875e-01,2.188e+00
4.925e-01,2.206e+00
4.975e-01,2.223e+00
5.025e-01,2.238e+00
5.075e-01,2.252e+00
5.125e-01,2.264e+00
5.175e-01,2.275e+00
5.225e-01,2.284e+00
5.275e-01,2.292e+00
5.325e-01,2.298e+00
5.375e-01,2.303e+00
5.425e-01,2.306e+00
5.475e-01,2.308e+00
5.525e-01,2.307e+00
5.575e-01,2.306e+00
5.625e-01,2.302e+00
5.675e-01,2.297e+00
5.725e-01,2.290e+00
5.775e-01,2.281e+00
5.825e-01,2.271e+00
5.875e-01,2.259e+00
5.925e-01,2.245e+00
5.975e-01,2.229e+00
6.025e-01,2.212e+00
6.075e-01,2.193e+00
6.125e-01,2.172e+00
6.175e-01,2.150e+00
6.225e-01,2.125e+00
6.275e-01,2.099e+00
6.325e-01,2.072e+00
6.375e-01,2.043e+00
6.425e-01,2.012e+00
6.475e-01,1.980e+00
6.525e-01,1.946e+00
6.575e-01,1.911e+00
6.625e-01,1.874e+00
6.675e-01,1.836e+00
6.725e-01,1.797e+00
6.775e-01,1.756e+00
6.825e-01,1.714e+00
6.875e-01,1.671e+00
6.925e-01,1.627e+00
6.975e-01,1.583e+00
7.025e-01,1.537e+00
7.075e-01,1.491e+00
7.125e-01,1.443e+00
7.175e-01,1.396e+00
7.225e-01,1.348e+00
7.275e-01,1.299e+00
7.325e-01,1.250e+00
7.375e-01,1.201e+00
7.425e-01,1.152e+00
7.475e-01,1.103e+00
7.525e-01,1.054e+00
7.575e-01,1.005e+00
7.625e-01,9.566e-01
7.675e-01,9.086e-01
7.725e-01,8.612e-01
7.775e-01,8.144e-01
7.825e-01,7.683e-01
7.875e-01,7.231e-01
7.925e-01,6.788e-01
7.975e-01,6.356e-01
8.025e-01,5.934e-01
8.075e-01,5.524e-01
8.125e-01,5.127e-01
8.175e-01,4.744e-01
8.225e-01,4.374e-01
8.275e-01,4.018e-01
8.325e-01,3.678e-01
8.375e-01,3.354e-01
8.425e-01,3.045e-01
8.475e-01,2.752e-01
8.525e-01,2.476e-01
8.575e-01,2.216e-01
8.625e-01,1.973e-01
8.675e-01,1.747e-01
8.725e-01,1.537e-01
8.775e-01,1.343e-01
8.825e-01,1.165e-01
8.875e-01,1.003e-01
8.925e-01,8.563e-02
8.975e-01,7.243e-02
9.025e-01,6.064e-02
9.075e-01,5.020e-02
9.125e-01,4.105e-02
9.175e-01,3.310e-02
9.225e-01,2.628e-02
9.275e-01,2.050e-02
9.325e-01,1.568e-02
9.375e-01,1.171e-02
9.425e-01,8.518e-03
9.475e-01,6.001e-03
9.525e-01,4.070e-03
9.575e-01,2.635e-03
9.625e-01,1.610e-03
9.675e-01,9.127e-04
9.725e-01,4.686e-04
9.775e-01,2.094e-04
9.825e-01,7.592e-05
9.875e-01,1.940e-05
9.925e-01,2.425e-06
9.975e-01,2.768e-08
