transmittance,probability_density
2.500e-03,1.488e-03
7.500e-03,8.405e-03
1.250e-02,1.753e-02
1.750e-02,2.736e-02
2.250e-02,3.721e-02
2.750e-02,4.680e-02
3.250e-02,5.605e-02
3.750e-02,6.495e-02
4.250e-02,7.359e-02
4.750e-02,8.204e-02
5.250e-02,9.041e-02
5.750e-02,9.879e-02
6.250e-02,1.073e-01
6.750e-02,1.160e-01
7.250e-02,1.251e-01
7.750e-02,1.346e-01
8.250e-02,1.446e-01
8.750e-02,1.553e-01
9.250e-02,1.667e-01
9.750e-02,1.790e-01
1.025e-01,1.921e-01
1.075e-01,2.062e-01
1.125e-01,2.214e-01
1.175e-01,2.378e-01
1.225e-01,2.553e-01
1.275e-01,2.740e-01
1.325e-01,2.940e-01
1.375e-01,3.153e-01
1.425e-01,3.378e-01
1.475e-01,3.618e-01
1.525e-01,3.871e-01
1.575e-01,4.137e-01
1.625e-01,4.417e-01
1.675e-01,4.710e-01
1.725e-01,5.017e-01
1.775e-01,5.336e-01
1.825e-01,5.669e-01
1.875e-01,6.014e-01
1.925e-01,6.370e-01
1.975e-01,6.738e-01
2.025e-01,7.117e-01
2.075e-01,7.505e-01
2.125e-01,7.903e-01
2.175e-01,8.309e-01
2.225e-01,8.723e-01
2.275e-01,9.144e-01
2.325e-01,9.571e-01
2.375e-01,1.000e+00
2.425e-01,1.044e+00
2.475e-01,1.088e+00
2.525e-01,1.132e+00
2.575e-01,1.176e+00
2.625e-01,1.220e+00
2.675e-01,1.264e+00
2.725e-01,1.309e+00
2.775e-01,1.353e+00
2.825e-01,1.396e+00
2.875e-01,1.440e+00
2.925e-01,1.483e+00
2.975e-01,1.525e+00
3.025e-01,1.568e+00
3.075e-01,1.609e+00
3.125e-01,1.650e+00
3.175e-01,1.691e+00
3.225e-01,1.731e+00
3.275e-01,1.770e+00
3.325e-01,1.809e+00
3.375e-01,1.846e+00
3.425e-01,1.883e+00
3.475e-01,1.919e+00
3.525e-01,1.955e+00
3.575e-01,1.989e+00
3.625e-01,2.022e+00
3.675e-01,2.054e+00
3.725e-01,2.086e+00
3.775e-01,2.116e+00
3.825e-01,2.145e+00
3.875e-01,2.172e+00
3.925e-01,2.199e+00
3.975e-01,2.224e+00
4.025e-01,2.247e+00
4.075e-01,2.270e+00
4.125e-01,2.290e+00
4.175e-01,2.309e+00
4.225e-01,2.327e+00
4.275e-01,2.343e+00
4.325e-01,2.357e+00
4.375e-01,2.370e+00
4.425e-01,2.380e+00
4.475e-01,2.389e+00
4.525e-01,2.396e+00
4.575e-01,2.401e+00
4.625e-01,2.405e+00
4.675e-01,2.406e+00
4.725e-01,2.406e+00
4.775e-01,2.403e+00
4.825e-01,2.399e+00
4.875e-01,2.393e+00
4.925e-01,2.384e+00
4.975e-01,2.374e+00
5.025e-01,2.362e+00
5.075e-01,2.348e+00
5.125e-01,2.332e+00
5.175e-01,2.314e+00
5.225e-01,2.295e+00
5.275e-01,2.274e+00
5.325e-01,2.251e+00
5.375e-01,2.226e+00
5.425e-01,2.199e+00
5.475e-01,2.171e+00
5.525e-01,2.142e+00
5.575e-01,2.111e+00
5.625e-01,2.078e+00
5.675e-01,2.044e+00
5.725e-01,2.009e+00
5.775e-01,1.973e+00
5.825e-01,1.935e+00
5.875e-01,1.897e+00
5.925e-01,1.857e+00
5.975e-01,1.816e+00
6.025e-01,1.775e+00
6.075e-01,1.732e+00
6.125e-01,1.689e+00
6.175e-01,1.646e+00
6.225e-01,1.602e+00
6.275e-01,1.557e+00
6.325e-01,1.512e+00
6.375e-01,1.466e+00
6.425e-01,1.421e+00
6.475e-01,1.375e+00
6.525e-01,1.329e+00
6.575e-01,1.283e+00
6.625e-01,1.237e+00
6.675e-01,1.191e+00
6.725e-01,1.146e+00
6.775e-01,1.101e+00
6.825e-01,1.056e+00
6.875e-01,1.012e+00
6.925e-01,9.679e-01
6.975e-01,9.246e-01
7.025e-01,8.819e-01
7.075e-01,8.400e-01
7.125e-01,7.988e-01
7.175e-01,7.584e-01
7.225e-01,7.188e-01
7.275e-01,6.801e-01
7.325e-01,6.424e-01
7.375e-01,6.057e-01
7.425e-01,5.700e-01
7.475e-01,5.354e-01
7.525e-01,5.019e-01
7.575e-01,4.695e-01
7.625e-01,4.382e-01
7.675e-01,4.081e-01
7.725e-01,3.792e-01
7.775e-01,3.514e-01
7.825e-01,3.249e-01
7.875e-01,2.996e-01
7.925e-01,2.755e-01
7.975e-01,2.526e-01
8.025e-01,2.309e-01
8.075e-01,2.105e-01
8.125e-01,1.912e-01
8.175e-01,1.730e-01
8.225e-01,1.560e-01
8.275e-01,1.402e-01
8.325e-01,1.254e-01
8.375e-01,1.117e-01
8.425e-01,9.907e-02
8.475e-01,8.743e-02
8.525e-01,7.676e-02
8.575e-01,6.702e-02
8.625e-01,5.817e-02
8.675e-01,5.018e-02
8.725e-01,4.299e-02
8.775e-01,3.656e-02
8.825e-01,3.085e-02
8.875e-01,2.581e-02
8.925e-01,2.140e-02
8.975e-01,1.755e-02
9.025e-01,1.424e-02
9.075e-01,1.141e-02
9.125e-01,9.024e-03
9.175e-01,7.026e-03
9.225e-01,5.377e-03
9.275e-01,4.036e-03
9.325e-01,2.964e-03
9.375e-01,2.121e-03
9.425e-01,1.474e-03
9.475e-01,9.890e-04
9.525e-01,6.363e-04
9.575e-01,3.890e-04
9.625e-01,2.230e-04
9.675e-01,1.178e-04
9.725e-01,5.579e-05
9.775e-01,2.266e-05
9.825e-01,7.314e-06
9.875e-01,1.605e-06
9.925e-01,1.601e-07
9.975e-01,1.139e-09
