transmittance,probability_density
2.500e-03,5.855e-06
7.500e-03,1.493e-04
1.250e-02,6.411e-04
1.750e-02,1.626e-03
2.250e-02,3.192e-03
2.750e-02,5.387e-03
3.250e-02,8.228e-03
3.750e-02,1.171e-02
4.250e-02,1.580e-02
4.750e-02,2.046e-02
5.250e-02,2.564e-02
5.750e-02,3.129e-02
6.250e-02,3.734e-02
6.750e-02,4.373e-02
7.250e-02,5.042e-02
7.750e-02,5.734e-02
8.250e-02,6.445e-02
8.750e-02,7.171e-02
9.250e-02,7.910e-02
9.750e-02,8.658e-02
1.025e-01,9.415e-02
1.075e-01,1.018e-01
1.125e-01,1.095e-01
1.175e-01,1.173e-01
1.225e-01,1.252e-01
1.275e-01,1.333e-01
1.325e-01,1.414e-01
1.375e-01,1.497e-01
1.425e-01,1.582e-01
1.475e-01,1.670e-01
1.525e-01,1.759e-01
1.575e-01,1.852e-01
1.625e-01,1.947e-01
1.675e-01,2.046e-01
1.725e-01,2.149e-01
1.775e-01,2.255e-01
1.825e-01,2.366e-01
1.875e-01,2.481e-01
1.925e-01,2.601e-01
1.975e-01,2.726e-01
2.025e-01,2.856e-01
2.075e-01,2.992e-01
2.125e-01,3.133e-01
2.175e-01,3.281e-01
2.225e-01,3.434e-01
2.275e-01,3.593e-01
2.325e-01,3.759e-01
2.375e-01,3.931e-01
2.425e-01,4.110e-01
2.475e-01,4.295e-01
2.525e-01,4.486e-01
2.575e-01,4.684e-01
2.625e-01,4.889e-01
2.675e-01,5.100e-01
2.725e-01,5.317e-01
2.775e-01,5.540e-01
2.825e-01,5.769e-01
2.875e-01,6.004e-01
2.925e-01,6.246e-01
2.975e-01,6.492e-01
3.025e-01,6.744e-01
3.075e-01,7.002e-01
3.125e-01,7.265e-01
3.175e-01,7.533e-01
3.225e-01,7.806e-01
3.275e-01,8.085e-01
3.325e-01,8.368e-01
3.375e-01,8.656e-01
3.425e-01,8.950e-01
3.475e-01,9.248e-01
3.525e-01,9.551e-01
3.575e-01,9.859e-01
3.625e-01,1.017e+00
3.675e-01,1.049e+00
3.725e-01,1.081e+00
3.775e-01,1.114e+00
3.825e-01,1.147e+00
3.875e-01,1.181e+00
3.925e-01,1.215e+00
3.975e-01,1.249e+00
4.025e-01,1.284e+00
4.075e-01,1.319e+00
4.125e-01,1.355e+00
4.175e-01,1.390e+00
4.225e-01,1.426e+00
4.275e-01,1.463e+00
4.325e-01,1.499e+00
4.375e-01,1.536e+00
4.425e-01,1.572e+00
4.475e-01,1.609e+00
4.525e-01,1.645e+00
4.575e-01,1.682e+00
4.625e-01,1.718e+00
4.675e-01,1.754e+00
4.725e-01,1.790e+00
4.775e-01,1.825e+00
4.825e-01,1.860e+00
4.875e-01,1.894e+00
4.925e-01,1.928e+00
4.975e-01,1.962e+00
5.025e-01,1.994e+00
5.075e-01,2.026e+00
5.125e-01,2.057e+00
5.175e-01,2.088e+00
5.225e-01,2.117e+00
5.275e-01,2.145e+00
5.325e-01,2.173e+00
5.375e-01,2.199e+00
5.425e-01,2.224e+00
5.475e-01,2.248e+00
5.525e-01,2.271e+00
5.575e-01,2.292e+00
5.625e-01,2.312e+00
5.675e-01,2.330e+00
5.725e-01,2.347e+00
5.775e-01,2.362e+00
5.825e-01,2.376e+00
5.875e-01,2.388e+00
5.925e-01,2.398e+00
5.975e-01,2.406e+00
6.025e-01,2.413e+00
6.075e-01,2.417e+00
6.125e-01,2.420e+00
6.175e-01,2.421e+00
6.225e-01,2.419e+00
6.275e-01,2.416e+00
6.325e-01,2.410e+00
6.375e-01,2.402e+00
6.425e-01,2.392e+00
6.475e-01,2.380e+00
6.525e-01,2.365e+00
6.575e-01,2.348e+00
6.625e-01,2.329e+00
6.675e-01,2.307e+00
6.725e-01,2.283e+00
6.775e-01,2.257e+00
6.825e-01,2.229e+00
6.875e-01,2.198e+00
6.925e-01,2.165e+00
6.975e-01,2.130e+00
7.025e-01,2.092e+00
7.075e-01,2.053e+00
7.125e-01,2.011e+00
7.175e-01,1.968e+00
7.225e-01,1.922e+00
7.275e-01,1.875e+00
7.325e-01,1.826e+00
7.375e-01,1.775e+00
7.425e-01,1.723e+00
7.475e-01,1.669e+00
7.525e-01,1.615e+00
7.575e-01,1.559e+00
7.625e-01,1.501e+00
7.675e-01,1.444e+00
7.725e-01,1.385e+00
7.775e-01,1.326e+00
7.825e-01,1.266e+00
7.875e-01,1.206e+00
7.925e-01,1.147e+00
7.975e-01,1.087e+00
8.025e-01,1.027e+00
8.075e-01,9.685e-01
8.125e-01,9.102e-01
8.175e-01,8.528e-01
8.225e-01,7.963e-01
8.275e-01,7.409e-01
8.325e-01,6.869e-01
8.375e-01,6.343e-01
8.425e-01,5.834e-01
8.475e-01,5.342e-01
8.525e-01,4.869e-01
8.575e-01,4.415e-01
8.625e-01,3.983e-01
8.675e-01,3.573e-01
8.725e-01,3.186e-01
8.775e-01,2.822e-01
8.825e-01,2.483e-01
8.875e-01,2.167e-01
8.925e-01,1.876e-01
8.975e-01,1.609e-01
9.025e-01,1.367e-01
9.075e-01,1.148e-01
9.125e-01,9.529e-02
9.175e-01,7.802e-02
9.225e-01,6.291e-02
9.275e-01,4.987e-02
9.325e-01,3.876e-02
9.375e-01,2.945e-02
9.425e-01,2.180e-02
9.475e-01,1.564e-02
9.525e-01,1.081e-02
9.575e-01,7.144e-03
9.625e-01,4.461e-03
9.675e-01,2.590e-03
9.725e-01,1.365e-03
9.775e-01,6.284e-04
9.825e-01,2.360e-04
9.875e-01,6.300e-05
9.925e-01,8.386e-06
9.975e-01,1.083e-07
