transmittance,probability_density
2.500e-03,1.789e-08
7.500e-03,2.116e-06
1.250e-02,1.821e-05
1.750e-02,7.202e-05
2.250e-02,1.949e-04
2.750e-02,4.214e-04
3.250e-02,7.852e-04
3.750e-02,1.317e-03
4.250e-02,2.045e-03
4.750e-02,2.991e-03
5.250e-02,4.174e-03
5.750e-02,5.608e-03
6.250e-02,7.305e-03
6.750e-02,9.270e-03
7.250e-02,1.151e-02
7.750e-02,1.402e-02
8.250e-02,1.680e-02
8.750e-02,1.985e-02
9.250e-02,2.316e-02
9.750e-02,2.671e-02
1.025e-01,3.049e-02
1.075e-01,3.448e-02
1.125e-01,3.868e-02
1.175e-01,4.305e-02
1.225e-01,4.759e-02
1.275e-01,5.227e-02
1.325e-01,5.709e-02
1.375e-01,6.201e-02
1.425e-01,6.705e-02
1.475e-01,7.218e-02
1.525e-01,7.740e-02
1.575e-01,8.271e-02
1.625e-01,8.811e-02
1.675e-01,9.361e-02
1.725e-01,9.921e-02
1.775e-01,1.049e-01
1.825e-01,1.108e-01
1.875e-01,1.168e-01
1.925e-01,1.229e-01
1.975e-01,1.293e-01
2.025e-01,1.358e-01
2.075e-01,1.426e-01
2.125e-01,1.497e-01
2.175e-01,1.570e-01
2.225e-01,1.646e-01
2.275e-01,1.726e-01
2.325e-01,1.809e-01
2.375e-01,1.896e-01
2.425e-01,1.986e-01
2.475e-01,2.081e-01
2.525e-01,2.181e-01
2.575e-01,2.284e-01
2.625e-01,2.393e-01
2.675e-01,2.506e-01
2.725e-01,2.625e-01
2.775e-01,2.748e-01
2.825e-01,2.877e-01
2.875e-01,3.011e-01
2.925e-01,3.150e-01
2.975e-01,3.295e-01
3.025e-01,3.446e-01
3.075e-01,3.602e-01
3.125e-01,3.763e-01
3.175e-01,3.931e-01
3.225e-01,4.104e-01
3.275e-01,4.283e-01
3.325e-01,4.467e-01
3.375e-01,4.657e-01
3.425e-01,4.853e-01
3.475e-01,5.054e-01
3.525e-01,5.261e-01
3.575e-01,5.473e-01
3.625e-01,5.691e-01
3.675e-01,5.915e-01
3.725e-01,6.143e-01
3.775e-01,6.378e-01
3.825e-01,6.617e-01
3.875e-01,6.862e-01
3.925e-01,7.113e-01
3.975e-01,7.369e-01
4.025e-01,7.630e-01
4.075e-01,7.897e-01
4.125e-01,8.169e-01
4.175e-01,8.447e-01
4.225e-01,8.731e-01
4.275e-01,9.021e-01
4.325e-01,9.316e-01
4.375e-01,9.618e-01
4.425e-01,9.926e-01
4.475e-01,1.024e+00
4.525e-01,1.056e+00
4.575e-01,1.089e+00
4.625e-01,1.122e+00
4.675e-01,1.157e+00
4.725e-01,1.191e+00
4.775e-01,1.227e+00
4.825e-01,1.263e+00
4.875e-01,1.300e+00
4.925e-01,1.338e+00
4.975e-01,1.376e+00
5.025e-01,1.415e+00
5.075e-01,1.454e+00
5.125e-01,1.494e+00
5.175e-01,1.535e+00
5.225e-01,1.576e+00
5.275e-01,1.618e+00
5.325e-01,1.660e+00
5.375e-01,1.702e+00
5.425e-01,1.745e+00
5.475e-01,1.788e+00
5.525e-01,1.831e+00
5.575e-01,1.874e+00
5.625e-01,1.918e+00
5.675e-01,1.961e+00
5.725e-01,2.004e+00
5.775e-01,2.047e+00
5.825e-01,2.090e+00
5.875e-01,2.132e+00
5.925e-01,2.174e+00
5.975e-01,2.215e+00
6.025e-01,2.255e+00
6.075e-01,2.295e+00
6.125e-01,2.334e+00
6.175e-01,2.372e+00
6.225e-01,2.408e+00
6.275e-01,2.443e+00
6.325e-01,2.477e+00
6.375e-01,2.510e+00
6.425e-01,2.540e+00
6.475e-01,2.569e+00
6.525e-01,2.596e+00
6.575e-01,2.621e+00
6.625e-01,2.644e+00
6.675e-01,2.664e+00
6.725e-01,2.682e+00
6.775e-01,2.697e+00
6.825e-01,2.710e+00
6.875e-01,2.719e+00
6.925e-01,2.726e+00
6.975e-01,2.729e+00
7.025e-01,2.729e+00
7.075e-01,2.726e+00
7.125e-01,2.719e+00
7.175e-01,2.709e+00
7.225e-01,2.695e+00
7.275e-01,2.677e+00
7.325e-01,2.655e+00
7.375e-01,2.629e+00
7.425e-01,2.600e+00
7.475e-01,2.566e+00
7.525e-01,2.528e+00
7.575e-01,2.487e+00
7.625e-01,2.441e+00
7.675e-01,2.392e+00
7.725e-01,2.339e+00
7.775e-01,2.282e+00
7.825e-01,2.221e+00
7.875e-01,2.157e+00
7.925e-01,2.090e+00
7.975e-01,2.020e+00
8.025e-01,1.947e+00
8.075e-01,1.871e+00
8.125e-01,1.793e+00
8.175e-01,1.712e+00
8.225e-01,1.630e+00
8.275e-01,1.547e+00
8.325e-01,1.463e+00
8.375e-01,1.377e+00
8.425e-01,1.292e+00
8.475e-01,1.206e+00
8.525e-01,1.121e+00
8.575e-01,1.037e+00
8.625e-01,9.544e-01
8.675e-01,8.733e-01
8.725e-01,7.942e-01
8.775e-01,7.176e-01
8.825e-01,6.439e-01
8.875e-01,5.734e-01
8.925e-01,5.063e-01
8.975e-01,4.431e-01
9.025e-01,3.840e-01
9.075e-01,3.291e-01
9.125e-01,2.787e-01
9.175e-01,2.328e-01
9.225e-01,1.916e-01
9.275e-01,1.549e-01
9.325e-01,1.229e-01
9.375e-01,9.532e-02
9.425e-01,7.202e-02
9.475e-01,5.276e-02
9.525e-01,3.725e-02
9.575e-01,2.514e-02
9.625e-01,1.604e-02
9.675e-01,9.518e-03
9.725e-01,5.131e-03
9.775e-01,2.417e-03
9.825e-01,9.303e-04
9.875e-01,2.550e-04
9.925e-01,3.500e-05
9.975e-01,4.723e-07
