transmittance,probability_density
2.500e-03,6.229e-15
7.500e-03,3.922e-11
1.250e-02,2.088e-09
1.750e-02,2.700e-08
2.250e-02,1.750e-07
2.750e-02,7.523e-07
3.250e-02,2.463e-06
3.750e-02,6.641e-06
4.250e-02,1.549e-05
4.750e-02,3.226e-05
5.250e-02,6.141e-05
5.750e-02,1.086e-04
6.250e-02,1.807e-04
6.750e-02,2.854e-04
7.250e-02,4.313e-04
7.750e-02,6.275e-04
8.250e-02,8.832e-04
8.750e-02,1.207e-03
9.250e-02,1.609e-03
9.750e-02,2.096e-03
1.025e-01,2.677e-03
1.075e-01,3.357e-03
1.125e-01,4.144e-03
1.175e-01,5.044e-03
1.225e-01,6.060e-03
1.275e-01,7.200e-03
1.325e-01,8.466e-03
1.375e-01,9.864e-03
1.425e-01,1.140e-02
1.475e-01,1.307e-02
1.525e-01,1.489e-02
1.575e-01,1.685e-02
1.625e-01,1.897e-02
1.675e-01,2.124e-02
1.725e-01,2.366e-02
1.775e-01,2.623e-02
1.825e-01,2.896e-02
1.875e-01,3.184e-02
1.925e-01,3.487e-02
1.975e-01,3.804e-02
2.025e-01,4.135e-02
2.075e-01,4.479e-02
2.125e-01,4.836e-02
2.175e-01,5.204e-02
2.225e-01,5.584e-02
2.275e-01,5.975e-02
2.325e-01,6.376e-02
2.375e-01,6.787e-02
2.425e-01,7.208e-02
2.475e-01,7.639e-02
2.525e-01,8.081e-02
2.575e-01,8.533e-02
2.625e-01,8.997e-02
2.675e-01,9.474e-02
2.725e-01,9.964e-02
2.775e-01,1.047e-01
2.825e-01,1.099e-01
2.875e-01,1.153e-01
2.925e-01,1.210e-01
2.975e-01,1.268e-01
3.025e-01,1.329e-01
3.075e-01,1.393e-01
3.125e-01,1.459e-01
3.175e-01,1.529e-01
3.225e-01,1.601e-01
3.275e-01,1.678e-01
3.325e-01,1.757e-01
3.375e-01,1.841e-01
3.425e-01,1.929e-01
3.475e-01,2.020e-01
3.525e-01,2.116e-01
3.575e-01,2.217e-01
3.625e-01,2.322e-01
3.675e-01,2.431e-01
3.725e-01,2.545e-01
3.775e-01,2.664e-01
3.825e-01,2.788e-01
3.875e-01,2.917e-01
3.925e-01,3.051e-01
3.975e-01,3.190e-01
4.025e-01,3.334e-01
4.075e-01,3.483e-01
4.125e-01,3.637e-01
4.175e-01,3.797e-01
4.225e-01,3.963e-01
4.275e-01,4.134e-01
4.325e-01,4.310e-01
4.375e-01,4.493e-01
4.425e-01,4.681e-01
4.475e-01,4.875e-01
4.525e-01,5.075e-01
4.575e-01,5.281e-01
4.625e-01,5.494e-01
4.675e-01,5.713e-01
4.725e-01,5.939e-01
4.775e-01,6.171e-01
4.825e-01,6.411e-01
4.875e-01,6.658e-01
4.925e-01,6.913e-01
4.975e-01,7.176e-01
5.025e-01,7.446e-01
5.075e-01,7.725e-01
5.125e-01,8.013e-01
5.175e-01,8.310e-01
5.225e-01,8.616e-01
5.275e-01,8.932e-01
5.325e-01,9.259e-01
5.375e-01,9.595e-01
5.425e-01,9.943e-01
5.475e-01,1.030e+00
5.525e-01,1.067e+00
5.575e-01,1.105e+00
5.625e-01,1.145e+00
5.675e-01,1.186e+00
5.725e-01,1.228e+00
5.775e-01,1.271e+00
5.825e-01,1.316e+00
5.875e-01,1.362e+00
5.925e-01,1.409e+00
5.975e-01,1.458e+00
6.025e-01,1.509e+00
6.075e-01,1.561e+00
6.125e-01,1.614e+00
6.175e-01,1.668e+00
6.225e-01,1.724e+00
6.275e-01,1.782e+00
6.325e-01,1.841e+00
6.375e-01,1.900e+00
6.425e-01,1.962e+00
6.475e-01,2.024e+00
6.525e-01,2.087e+00
6.575e-01,2.151e+00
6.625e-01,2.216e+00
6.675e-01,2.282e+00
6.725e-01,2.348e+00
6.775e-01,2.415e+00
6.825e-01,2.482e+00
6.875e-01,2.548e+00
6.925e-01,2.615e+00
6.975e-01,2.681e+00
7.025e-01,2.746e+00
7.075e-01,2.810e+00
7.125e-01,2.873e+00
7.175e-01,2.934e+00
7.225e-01,2.993e+00
7.275e-01,3.049e+00
7.325e-01,3.104e+00
7.375e-01,3.154e+00
7.425e-01,3.202e+00
7.475e-01,3.245e+00
7.525e-01,3.284e+00
7.575e-01,3.319e+00
7.625e-01,3.348e+00
7.675e-01,3.371e+00
7.725e-01,3.388e+00
7.775e-01,3.399e+00
7.825e-01,3.403e+00
7.875e-01,3.399e+00
7.925e-01,3.388e+00
7.975e-01,3.369e+00
8.025e-01,3.341e+00
8.075e-01,3.304e+00
8.125e-01,3.259e+00
8.175e-01,3.204e+00
8.225e-01,3.141e+00
8.275e-01,3.068e+00
8.325e-01,2.986e+00
8.375e-01,2.896e+00
8.425e-01,2.797e+00
8.475e-01,2.689e+00
8.525e-01,2.574e+00
8.575e-01,2.452e+00
8.625e-01,2.323e+00
8.675e-01,2.188e+00
8.725e-01,2.049e+00
8.775e-01,1.906e+00
8.825e-01,1.760e+00
8.875e-01,1.613e+00
8.925e-01,1.465e+00
8.975e-01,1.319e+00
9.025e-01,1.176e+00
9.075e-01,1.036e+00
9.125e-01,9.017e-01
9.175e-01,7.739e-01
9.225e-01,6.540e-01
9.275e-01,5.429e-01
9.325e-01,4.417e-01
9.375e-01,3.511e-01
9.425e-01,2.717e-01
9.475e-01,2.036e-01
9.525e-01,1.468e-01
9.575e-01,1.011e-01
9.625e-01,6.562e-02
9.675e-01,3.953e-02
9.725e-01,2.155e-02
9.775e-01,1.021e-02
9.825e-01,3.921e-03
9.875e-01,1.057e-03
9.925e-01,1.386e-04
9.975e-01,1.611e-06
