transmittance,probability_density
2.500e-03,1.706e-07
7.500e-03,1.105e-05
1.250e-02,7.222e-05
1.750e-02,2.392e-04
2.250e-02,5.690e-04
2.750e-02,1.113e-03
3.250e-02,1.914e-03
3.750e-02,3.006e-03
4.250e-02,4.415e-03
4.750e-02,6.158e-03
5.250e-02,8.247e-03
5.750e-02,1.069e-02
6.250e-02,1.347e-02
6.750e-02,1.660e-02
7.250e-02,2.006e-02
7.750e-02,2.384e-02
8.250e-02,2.790e-02
8.750e-02,3.224e-02
9.250e-02,3.683e-02
9.750e-02,4.164e-02
1.025e-01,4.664e-02
1.075e-01,5.182e-02
1.125e-01,5.715e-02
1.175e-01,6.261e-02
1.225e-01,6.818e-02
1.275e-01,7.386e-02
1.325e-01,7.962e-02
1.375e-01,8.548e-02
1.425e-01,9.142e-02
1.475e-01,9.746e-02
1.525e-01,1.036e-01
1.575e-01,1.098e-01
1.625e-01,1.162e-01
1.675e-01,1.227e-01
1.725e-01,1.294e-01
1.775e-01,1.363e-01
1.825e-01,1.434e-01
1.875e-01,1.507e-01
1.925e-01,1.582e-01
1.975e-01,1.661e-01
2.025e-01,1.743e-01
2.075e-01,1.828e-01
2.125e-01,1.916e-01
2.175e-01,2.009e-01
2.225e-01,2.105e-01
2.275e-01,2.206e-01
2.325e-01,2.312e-01
2.375e-01,2.422e-01
2.425e-01,2.537e-01
2.475e-01,2.657e-01
2.525e-01,2.782e-01
2.575e-01,2.912e-01
2.625e-01,3.048e-01
2.675e-01,3.190e-01
2.725e-01,3.337e-01
2.775e-01,3.490e-01
2.825e-01,3.649e-01
2.875e-01,3.813e-01
2.925e-01,3.984e-01
2.975e-01,4.161e-01
3.025e-01,4.343e-01
3.075e-01,4.531e-01
3.125e-01,4.726e-01
3.175e-01,4.926e-01
3.225e-01,5.132e-01
3.275e-01,5.343e-01
3.325e-01,5.561e-01
3.375e-01,5.783e-01
3.425e-01,6.012e-01
3.475e-01,6.245e-01
3.525e-01,6.484e-01
3.575e-01,6.729e-01
3.625e-01,6.978e-01
3.675e-01,7.233e-01
3.725e-01,7.493e-01
3.775e-01,7.758e-01
3.825e-01,8.028e-01
3.875e-01,8.303e-01
3.925e-01,8.584e-01
3.975e-01,8.870e-01
4.025e-01,9.161e-01
4.075e-01,9.458e-01
4.125e-01,9.760e-01
4.175e-01,1.007e+00
4.225e-01,1.038e+00
4.275e-01,1.070e+00
4.325e-01,1.103e+00
4.375e-01,1.136e+00
4.425e-01,1.170e+00
4.475e-01,1.204e+00
4.525e-01,1.239e+00
4.575e-01,1.274e+00
4.625e-01,1.310e+00
4.675e-01,1.347e+00
4.725e-01,1.384e+00
4.775e-01,1.421e+00
4.825e-01,1.459e+00
4.875e-01,1.498e+00
4.925e-01,1.537e+00
4.975e-01,1.576e+00
5.025e-01,1.615e+00
5.075e-01,1.655e+00
5.125e-01,1.695e+00
5.175e-01,1.735e+00
5.225e-01,1.775e+00
5.275e-01,1.815e+00
5.325e-01,1.855e+00
5.375e-01,1.895e+00
5.425e-01,1.935e+00
5.475e-01,1.974e+00
5.525e-01,2.014e+00
5.575e-01,2.052e+00
5.625e-01,2.090e+00
5.675e-01,2.128e+00
5.725e-01,2.165e+00
5.775e-01,2.201e+00
5.825e-01,2.236e+00
5.875e-01,2.270e+00
5.925e-01,2.303e+00
5.975e-01,2.335e+00
6.025e-01,2.366e+00
6.075e-01,2.395e+00
6.125e-01,2.423e+00
6.175e-01,2.450e+00
6.225e-01,2.475e+00
6.275e-01,2.498e+00
6.325e-01,2.519e+00
6.375e-01,2.538e+00
6.425e-01,2.555e+00
6.475e-01,2.570e+00
6.525e-01,2.583e+00
6.575e-01,2.593e+00
6.625e-01,2.601e+00
6.675e-01,2.606e+00
6.725e-01,2.608e+00
6.775e-01,2.608e+00
6.825e-01,2.605e+00
6.875e-01,2.599e+00
6.925e-01,2.590e+00
6.975e-01,2.578e+00
7.025e-01,2.562e+00
7.075e-01,2.544e+00
7.125e-01,2.522e+00
7.175e-01,2.497e+00
7.225e-01,2.469e+00
7.275e-01,2.437e+00
7.325e-01,2.403e+00
7.375e-01,2.365e+00
7.425e-01,2.323e+00
7.475e-01,2.279e+00
7.525e-01,2.231e+00
7.575e-01,2.181e+00
7.625e-01,2.127e+00
7.675e-01,2.071e+00
7.725e-01,2.011e+00
7.775e-01,1.950e+00
7.825e-01,1.886e+00
7.875e-01,1.820e+00
7.925e-01,1.751e+00
7.975e-01,1.681e+00
8.025e-01,1.610e+00
8.075e-01,1.537e+00
8.125e-01,1.463e+00
8.175e-01,1.388e+00
8.225e-01,1.313e+00
8.275e-01,1.238e+00
8.325e-01,1.162e+00
8.375e-01,1.087e+00
8.425e-01,1.013e+00
8.475e-01,9.397e-01
8.525e-01,8.676e-01
8.575e-01,7.972e-01
8.625e-01,7.287e-01
8.675e-01,6.623e-01
8.725e-01,5.983e-01
8.775e-01,5.370e-01
8.825e-01,4.787e-01
8.875e-01,4.234e-01
8.925e-01,3.714e-01
8.975e-01,3.229e-01
9.025e-01,2.780e-01
9.075e-01,2.367e-01
9.125e-01,1.991e-01
9.175e-01,1.652e-01
9.225e-01,1.351e-01
9.275e-01,1.085e-01
9.325e-01,8.555e-02
9.375e-01,6.593e-02
9.425e-01,4.950e-02
9.475e-01,3.603e-02
9.525e-01,2.528e-02
9.575e-01,1.696e-02
9.625e-01,1.075e-02
9.675e-01,6.345e-03
9.725e-01,3.401e-03
9.775e-01,1.594e-03
9.825e-01,6.104e-04
9.875e-01,1.666e-04
9.925e-01,2.281e-05
9.975e-01,3.088e-07
