transmittance,probability_density
2.500e-03,1.197e-09
7.500e-03,2.926e-07
1.250e-02,3.510e-06
1.750e-02,1.721e-05
2.250e-02,5.456e-05
2.750e-02,1.334e-04
3.250e-02,2.749e-04
3.750e-02,5.013e-04
4.250e-02,8.351e-04
4.750e-02,1.297e-03
5.250e-02,1.907e-03
5.750e-02,2.680e-03
6.250e-02,3.633e-03
6.750e-02,4.776e-03
7.250e-02,6.121e-03
7.750e-02,7.674e-03
8.250e-02,9.443e-03
8.750e-02,1.143e-02
9.250e-02,1.364e-02
9.750e-02,1.608e-02
1.025e-01,1.873e-02
1.075e-01,2.161e-02
1.125e-01,2.469e-02
1.175e-01,2.798e-02
1.225e-01,3.147e-02
1.275e-01,3.514e-02
1.325e-01,3.898e-02
1.375e-01,4.298e-02
1.425e-01,4.712e-02
1.475e-01,5.140e-02
1.525e-01,5.580e-02
1.575e-01,6.031e-02
1.625e-01,6.492e-02
1.675e-01,6.962e-02
1.725e-01,7.442e-02
1.775e-01,7.931e-02
1.825e-01,8.429e-02
1.875e-01,8.937e-02
1.925e-01,9.455e-02
1.975e-01,9.985e-02
2.025e-01,1.053e-01
2.075e-01,1.109e-01
2.125e-01,1.166e-01
2.175e-01,1.225e-01
2.225e-01,1.286e-01
2.275e-01,1.350e-01
2.325e-01,1.416e-01
2.375e-01,1.484e-01
2.425e-01,1.556e-01
2.475e-01,1.631e-01
2.525e-01,1.709e-01
2.575e-01,1.791e-01
2.625e-01,1.876e-01
2.675e-01,1.966e-01
2.725e-01,2.060e-01
2.775e-01,2.158e-01
2.825e-01,2.260e-01
2.875e-01,2.368e-01
2.925e-01,2.480e-01
2.975e-01,2.597e-01
3.025e-01,2.719e-01
3.075e-01,2.846e-01
3.125e-01,2.978e-01
3.175e-01,3.116e-01
3.225e-01,3.259e-01
3.275e-01,3.407e-01
3.325e-01,3.561e-01
3.375e-01,3.720e-01
3.425e-01,3.884e-01
3.475e-01,4.054e-01
3.525e-01,4.230e-01
3.575e-01,4.411e-01
3.625e-01,4.598e-01
3.675e-01,4.790e-01
3.725e-01,4.987e-01
3.775e-01,5.191e-01
3.825e-01,5.399e-01
3.875e-01,5.614e-01
3.925e-01,5.833e-01
3.975e-01,6.059e-01
4.025e-01,6.290e-01
4.075e-01,6.526e-01
4.125e-01,6.769e-01
4.175e-01,7.017e-01
4.225e-01,7.270e-01
4.275e-01,7.530e-01
4.325e-01,7.796e-01
4.375e-01,8.068e-01
4.425e-01,8.346e-01
4.475e-01,8.630e-01
4.525e-01,8.921e-01
4.575e-01,9.219e-01
4.625e-01,9.524e-01
4.675e-01,9.835e-01
4.725e-01,1.015e+00
4.775e-01,1.048e+00
4.825e-01,1.082e+00
4.875e-01,1.116e+00
4.925e-01,1.151e+00
4.975e-01,1.186e+00
5.025e-01,1.223e+00
5.075e-01,1.261e+00
5.125e-01,1.299e+00
5.175e-01,1.338e+00
5.225e-01,1.378e+00
5.275e-01,1.418e+00
5.325e-01,1.460e+00
5.375e-01,1.502e+00
5.425e-01,1.545e+00
5.475e-01,1.589e+00
5.525e-01,1.633e+00
5.575e-01,1.678e+00
5.625e-01,1.723e+00
5.675e-01,1.769e+00
5.725e-01,1.816e+00
5.775e-01,1.863e+00
5.825e-01,1.910e+00
5.875e-01,1.957e+00
5.925e-01,2.005e+00
5.975e-01,2.052e+00
6.025e-01,2.100e+00
6.075e-01,2.147e+00
6.125e-01,2.194e+00
6.175e-01,2.241e+00
6.225e-01,2.287e+00
6.275e-01,2.332e+00
6.325e-01,2.377e+00
6.375e-01,2.421e+00
6.425e-01,2.464e+00
6.475e-01,2.505e+00
6.525e-01,2.545e+00
6.575e-01,2.584e+00
6.625e-01,2.621e+00
6.675e-01,2.656e+00
6.725e-01,2.689e+00
6.775e-01,2.720e+00
6.825e-01,2.749e+00
6.875e-01,2.775e+00
6.925e-01,2.798e+00
6.975e-01,2.818e+00
7.025e-01,2.836e+00
7.075e-01,2.849e+00
7.125e-01,2.860e+00
7.175e-01,2.867e+00
7.225e-01,2.869e+00
7.275e-01,2.868e+00
7.325e-01,2.863e+00
7.375e-01,2.853e+00
7.425e-01,2.839e+00
7.475e-01,2.821e+00
7.525e-01,2.797e+00
7.575e-01,2.770e+00
7.625e-01,2.737e+00
7.675e-01,2.699e+00
7.725e-01,2.657e+00
7.775e-01,2.609e+00
7.825e-01,2.557e+00
7.875e-01,2.500e+00
7.925e-01,2.439e+00
7.975e-01,2.373e+00
8.025e-01,2.302e+00
8.075e-01,2.228e+00
8.125e-01,2.149e+00
8.175e-01,2.067e+00
8.225e-01,1.982e+00
8.275e-01,1.893e+00
8.325e-01,1.802e+00
8.375e-01,1.709e+00
8.425e-01,1.614e+00
8.475e-01,1.518e+00
8.525e-01,1.420e+00
8.575e-01,1.323e+00
8.625e-01,1.226e+00
8.675e-01,1.129e+00
8.725e-01,1.034e+00
8.775e-01,9.408e-01
8.825e-01,8.499e-01
8.875e-01,7.620e-01
8.925e-01,6.775e-01
8.975e-01,5.969e-01
9.025e-01,5.207e-01
9.075e-01,4.492e-01
9.125e-01,3.829e-01
9.175e-01,3.220e-01
9.225e-01,2.667e-01
9.275e-01,2.171e-01
9.325e-01,1.733e-01
9.375e-01,1.352e-01
9.425e-01,1.028e-01
9.475e-01,7.574e-02
9.525e-01,5.378e-02
9.575e-01,3.649e-02
9.625e-01,2.340e-02
9.675e-01,1.395e-02
9.725e-01,7.554e-03
9.775e-01,3.571e-03
9.825e-01,1.378e-03
9.875e-01,3.778e-04
9.925e-01,5.164e-05
9.975e-01,6.837e-07
