transmittance,probability_density
2.500e-03,4.530e-11
7.500e-03,2.670e-08
1.250e-02,4.789e-07
1.750e-02,3.051e-06
2.250e-02,1.172e-05
2.750e-02,3.337e-05
3.250e-02,7.780e-05
3.750e-02,1.575e-04
4.250e-02,2.867e-04
4.750e-02,4.809e-04
5.250e-02,7.558e-04
5.750e-02,1.127e-03
6.250e-02,1.608e-03
6.750e-02,2.214e-03
7.250e-02,2.955e-03
7.750e-02,3.841e-03
8.250e-02,4.883e-03
8.750e-02,6.088e-03
9.250e-02,7.464e-03
9.750e-02,9.015e-03
1.025e-01,1.075e-02
1.075e-01,1.266e-02
1.125e-01,1.477e-02
1.175e-01,1.706e-02
1.225e-01,1.954e-02
1.275e-01,2.221e-02
1.325e-01,2.507e-02
1.375e-01,2.810e-02
1.425e-01,3.131e-02
1.475e-01,3.469e-02
1.525e-01,3.822e-02
1.575e-01,4.190e-02
1.625e-01,4.572e-02
1.675e-01,4.967e-02
1.725e-01,5.373e-02
1.775e-01,5.791e-02
1.825e-01,6.218e-02
1.875e-01,6.656e-02
1.925e-01,7.103e-02
1.975e-01,7.559e-02
2.025e-01,8.024e-02
2.075e-01,8.499e-02
2.125e-01,8.985e-02
2.175e-01,9.482e-02
2.225e-01,9.992e-02
2.275e-01,1.052e-01
2.325e-01,1.106e-01
2.375e-01,1.161e-01
2.425e-01,1.219e-01
2.475e-01,1.279e-01
2.525e-01,1.341e-01
2.575e-01,1.405e-01
2.625e-01,1.473e-01
2.675e-01,1.544e-01
2.725e-01,1.617e-01
2.775e-01,1.695e-01
2.825e-01,1.775e-01
2.875e-01,1.860e-01
2.925e-01,1.949e-01
2.975e-01,2.042e-01
3.025e-01,2.139e-01
3.075e-01,2.241e-01
3.125e-01,2.347e-01
3.175e-01,2.458e-01
3.225e-01,2.574e-01
3.275e-01,2.695e-01
3.325e-01,2.821e-01
3.375e-01,2.952e-01
3.425e-01,3.088e-01
3.475e-01,3.229e-01
3.525e-01,3.375e-01
3.575e-01,3.527e-01
3.625e-01,3.684e-01
3.675e-01,3.846e-01
3.725e-01,4.014e-01
3.775e-01,4.187e-01
3.825e-01,4.366e-01
3.875e-01,4.550e-01
3.925e-01,4.739e-01
3.975e-01,4.934e-01
4.025e-01,5.135e-01
4.075e-01,5.341e-01
4.125e-01,5.553e-01
4.175e-01,5.770e-01
4.225e-01,5.994e-01
4.275e-01,6.223e-01
4.325e-01,6.459e-01
4.375e-01,6.700e-01
4.425e-01,6.948e-01
4.475e-01,7.202e-01
4.525e-01,7.462e-01
4.575e-01,7.729e-01
4.625e-01,8.003e-01
4.675e-01,8.284e-01
4.725e-01,8.572e-01
4.775e-01,8.868e-01
4.825e-01,9.171e-01
4.875e-01,9.482e-01
4.925e-01,9.801e-01
4.975e-01,1.013e+00
5.025e-01,1.047e+00
5.075e-01,1.081e+00
5.125e-01,1.116e+00
5.175e-01,1.153e+00
5.225e-01,1.190e+00
5.275e-01,1.228e+00
5.325e-01,1.267e+00
5.375e-01,1.308e+00
5.425e-01,1.349e+00
5.475e-01,1.391e+00
5.525e-01,1.434e+00
5.575e-01,1.478e+00
5.625e-01,1.523e+00
5.675e-01,1.569e+00
5.725e-01,1.616e+00
5.775e-01,1.664e+00
5.825e-01,1.712e+00
5.875e-01,1.761e+00
5.925e-01,1.811e+00
5.975e-01,1.862e+00
6.025e-01,1.913e+00
6.075e-01,1.965e+00
6.125e-01,2.017e+00
6.175e-01,2.070e+00
6.225e-01,2.122e+00
6.275e-01,2.175e+00
6.325e-01,2.228e+00
6.375e-01,2.280e+00
6.425e-01,2.333e+00
6.475e-01,2.384e+00
6.525e-01,2.436e+00
6.575e-01,2.486e+00
6.625e-01,2.536e+00
6.675e-01,2.584e+00
6.725e-01,2.631e+00
6.775e-01,2.677e+00
6.825e-01,2.720e+00
6.875e-01,2.762e+00
6.925e-01,2.802e+00
6.975e-01,2.839e+00
7.025e-01,2.874e+00
7.075e-01,2.906e+00
7.125e-01,2.934e+00
7.175e-01,2.960e+00
7.225e-01,2.981e+00
7.275e-01,2.999e+00
7.325e-01,3.013e+00
7.375e-01,3.022e+00
7.425e-01,3.027e+00
7.475e-01,3.027e+00
7.525e-01,3.022e+00
7.575e-01,3.012e+00
7.625e-01,2.997e+00
7.675e-01,2.975e+00
7.725e-01,2.949e+00
7.775e-01,2.916e+00
7.825e-01,2.878e+00
7.875e-01,2.833e+00
7.925e-01,2.783e+00
7.975e-01,2.726e+00
8.025e-01,2.664e+00
8.075e-01,2.596e+00
8.125e-01,2.522e+00
8.175e-01,2.443e+00
8.225e-01,2.359e+00
8.275e-01,2.270e+00
8.325e-01,2.176e+00
8.375e-01,2.078e+00
8.425e-01,1.977e+00
8.475e-01,1.872e+00
8.525e-01,1.765e+00
8.575e-01,1.656e+00
8.625e-01,1.545e+00
8.675e-01,1.433e+00
8.725e-01,1.322e+00
8.775e-01,1.211e+00
8.825e-01,1.102e+00
8.875e-01,9.948e-01
8.925e-01,8.907e-01
8.975e-01,7.902e-01
9.025e-01,6.940e-01
9.075e-01,6.029e-01
9.125e-01,5.173e-01
9.175e-01,4.379e-01
9.225e-01,3.650e-01
9.275e-01,2.991e-01
9.325e-01,2.402e-01
9.375e-01,1.886e-01
9.425e-01,1.442e-01
9.475e-01,1.069e-01
9.525e-01,7.629e-02
9.575e-01,5.203e-02
9.625e-01,3.351e-02
9.675e-01,2.006e-02
9.725e-01,1.090e-02
9.775e-01,5.161e-03
9.825e-01,1.991e-03
9.875e-01,5.442e-04
9.925e-01,7.369e-05
9.975e-01,9.443e-07
