transmittance,probability_density
2.500e-03,7.221e-52
7.500e-03,1.142e-39
1.250e-02,9.018e-34
1.750e-02,6.464e-30
2.250e-02,4.621e-27
2.750e-02,8.378e-25
3.250e-02,6.105e-23
3.750e-02,2.323e-21
4.250e-02,5.433e-20
4.750e-02,8.701e-19
5.250e-02,1.029e-17
5.750e-02,9.505e-17
6.250e-02,7.138e-16
6.750e-02,4.499e-15
7.250e-02,2.441e-14
7.750e-02,1.162e-13
8.250e-02,4.937e-13
8.750e-02,1.896e-12
9.250e-02,6.657e-12
9.750e-02,2.156e-11
1.025e-01,6.497e-11
1.075e-01,1.833e-10
1.125e-01,4.870e-10
1.175e-01,1.225e-09
1.225e-01,2.930e-09
1.275e-01,6.690e-09
1.325e-01,1.463e-08
1.375e-01,3.076e-08
1.425e-01,6.230e-08
1.475e-01,1.219e-07
1.525e-01,2.309e-07
1.575e-01,4.242e-07
1.625e-01,7.574e-07
1.675e-01,1.316e-06
1.725e-01,2.231e-06
1.775e-01,3.690e-06
1.825e-01,5.966e-06
1.875e-01,9.441e-06
1.925e-01,1.464e-05
1.975e-01,2.225e-05
2.025e-01,3.320e-05
2.075e-01,4.867e-05
2.125e-01,7.015e-05
2.175e-01,9.948e-05
2.225e-01,1.389e-04
2.275e-01,1.911e-04
2.325e-01,2.592e-04
2.375e-01,3.468e-04
2.425e-01,4.581e-04
2.475e-01,5.975e-04
2.525e-01,7.700e-04
2.575e-01,9.809e-04
2.625e-01,1.236e-03
2.675e-01,1.541e-03
2.725e-01,1.901e-03
2.775e-01,2.324e-03
2.825e-01,2.814e-03
2.875e-01,3.377e-03
2.925e-01,4.018e-03
2.975e-01,4.742e-03
3.025e-01,5.555e-03
3.075e-01,6.458e-03
3.125e-01,7.457e-03
3.175e-01,8.555e-03
3.225e-01,9.753e-03
3.275e-01,1.105e-02
3.325e-01,1.246e-02
3.375e-01,1.397e-02
3.425e-01,1.560e-02
3.475e-01,1.733e-02
3.525e-01,1.918e-02
3.575e-01,2.114e-02
3.625e-01,2.323e-02
3.675e-01,2.543e-02
3.725e-01,2.777e-02
3.775e-01,3.023e-02
3.825e-01,3.282e-02
3.875e-01,3.555e-02
3.925e-01,3.843e-02
3.975e-01,4.144e-02
4.025e-01,4.461e-02
4.075e-01,4.793e-02
4.125e-01,5.140e-02
4.175e-01,5.504e-02
4.225e-01,5.883e-02
4.275e-01,6.278e-02
4.325e-01,6.689e-02
4.375e-01,7.117e-02
4.425e-01,7.561e-02
4.475e-01,8.022e-02
4.525e-01,8.500e-02
4.575e-01,8.995e-02
4.625e-01,9.508e-02
4.675e-01,1.004e-01
4.725e-01,1.059e-01
4.775e-01,1.116e-01
4.825e-01,1.175e-01
4.875e-01,1.236e-01
4.925e-01,1.300e-01
4.975e-01,1.366e-01
5.025e-01,1.435e-01
5.075e-01,1.508e-01
5.125e-01,1.583e-01
5.175e-01,1.662e-01
5.225e-01,1.744e-01
5.275e-01,1.831e-01
5.325e-01,1.922e-01
5.375e-01,2.017e-01
5.425e-01,2.118e-01
5.475e-01,2.224e-01
5.525e-01,2.336e-01
5.575e-01,2.454e-01
5.625e-01,2.578e-01
5.675e-01,2.709e-01
5.725e-01,2.847e-01
5.775e-01,2.993e-01
5.825e-01,3.147e-01
5.875e-01,3.309e-01
5.925e-01,3.480e-01
5.975e-01,3.661e-01
6.025e-01,3.851e-01
6.075e-01,4.052e-01
6.125e-01,4.264e-01
6.175e-01,4.488e-01
6.225e-01,4.724e-01
6.275e-01,4.973e-01
6.325e-01,5.236e-01
6.375e-01,5.514e-01
6.425e-01,5.808e-01
6.475e-01,6.118e-01
6.525e-01,6.445e-01
6.575e-01,6.792e-01
6.625e-01,7.159e-01
6.675e-01,7.547e-01
6.725e-01,7.957e-01
6.775e-01,8.393e-01
6.825e-01,8.854e-01
6.875e-01,9.343e-01
6.925e-01,9.862e-01
6.975e-01,1.041e+00
7.025e-01,1.100e+00
7.075e-01,1.162e+00
7.125e-01,1.228e+00
7.175e-01,1.298e+00
7.225e-01,1.373e+00
7.275e-01,1.452e+00
7.325e-01,1.536e+00
7.375e-01,1.626e+00
7.425e-01,1.721e+00
7.475e-01,1.823e+00
7.525e-01,1.930e+00
7.575e-01,2.044e+00
7.625e-01,2.166e+00
7.675e-01,2.294e+00
7.725e-01,2.430e+00
7.775e-01,2.573e+00
7.825e-01,2.724e+00
7.875e-01,2.883e+00
7.925e-01,3.050e+00
7.975e-01,3.224e+00
8.025e-01,3.405e+00
8.075e-01,3.593e+00
8.125e-01,3.787e+00
8.175e-01,3.985e+00
8.225e-01,4.187e+00
8.275e-01,4.390e+00
8.325e-01,4.593e+00
8.375e-01,4.793e+00
8.425e-01,4.988e+00
8.475e-01,5.173e+00
8.525e-01,5.346e+00
8.575e-01,5.502e+00
8.625e-01,5.636e+00
8.675e-01,5.745e+00
8.725e-01,5.822e+00
8.775e-01,5.862e+00
8.825e-01,5.862e+00
8.875e-01,5.815e+00
8.925e-01,5.718e+00
8.975e-01,5.569e+00
9.025e-01,5.365e+00
9.075e-01,5.105e+00
9.125e-01,4.792e+00
9.175e-01,4.429e+00
9.225e-01,4.022e+00
9.275e-01,3.581e+00
9.325e-01,3.115e+00
9.375e-01,2.639e+00
9.425e-01,2.167e+00
9.475e-01,1.715e+00
9.525e-01,1.298e+00
9.575e-01,9.310e-01
9.625e-01,6.238e-01
9.675e-01,3.831e-01
9.725e-01,2.094e-01
9.775e-01,9.719e-02
9.825e-01,3.530e-02
9.875e-01,8.493e-03
9.925e-01,8.816e-04
9.975e-01,5.450e-06
