transmittance,probability_density
1.244e-01,9.824e-18
1.288e-01,2.357e-17
1.332e-01,5.480e-17
1.375e-01,1.237e-16
1.419e-01,2.717e-16
1.463e-01,5.816e-16
1.507e-01,1.215e-15
1.551e-01,2.480e-15
1.595e-01,4.954e-15
1.639e-01,9.695e-15
1.683e-01,1.861e-14
1.727e-01,3.506e-14
1.770e-01,6.490e-14
1.814e-01,1.182e-13
1.858e-01,2.117e-13
1.902e-01,3.736e-13
1.946e-01,6.497e-13
1.990e-01,1.114e-12
2.034e-01,1.886e-12
2.078e-01,3.152e-12
2.122e-01,5.203e-12
2.165e-01,8.489e-12
2.209e-01,1.369e-11
2.253e-01,2.185e-11
2.297e-01,3.451e-11
2.341e-01,5.395e-11
2.385e-01,8.352e-11
2.429e-01,1.281e-10
2.473e-01,1.947e-10
2.517e-01,2.934e-10
2.560e-01,4.383e-10
2.604e-01,6.495e-10
2.648e-01,9.549e-10
2.692e-01,1.393e-09
2.736e-01,2.017e-09
2.780e-01,2.900e-09
2.824e-01,4.141e-09
2.868e-01,5.872e-09
2.912e-01,8.272e-09
2.956e-01,1.158e-08
2.999e-01,1.610e-08
3.043e-01,2.226e-08
3.087e-01,3.060e-08
3.131e-01,4.182e-08
3.175e-01,5.682e-08
3.219e-01,7.679e-08
3.263e-01,1.032e-07
3.307e-01,1.381e-07
3.351e-01,1.837e-07
3.394e-01,2.432e-07
3.438e-01,3.204e-07
3.482e-01,4.202e-07
3.526e-01,5.484e-07
3.570e-01,7.127e-07
3.614e-01,9.220e-07
3.658e-01,1.188e-06
3.702e-01,1.523e-06
3.746e-01,1.946e-06
3.789e-01,2.475e-06
3.833e-01,3.137e-06
3.877e-01,3.959e-06
3.921e-01,4.978e-06
3.965e-01,6.236e-06
4.009e-01,7.783e-06
4.053e-01,9.678e-06
4.097e-01,1.199e-05
4.141e-01,1.481e-05
4.184e-01,1.823e-05
4.228e-01,2.236e-05
4.272e-01,2.733e-05
4.316e-01,3.331e-05
4.360e-01,4.046e-05
4.404e-01,4.899e-05
4.448e-01,5.914e-05
4.492e-01,7.118e-05
4.536e-01,8.541e-05
4.579e-01,1.022e-04
4.623e-01,1.219e-04
4.667e-01,1.450e-04
4.711e-01,1.721e-04
4.755e-01,2.036e-04
4.799e-01,2.402e-04
4.843e-01,2.827e-04
4.887e-01,3.318e-04
4.931e-01,3.884e-04
4.974e-01,4.535e-04
5.018e-01,5.282e-04
5.062e-01,6.138e-04
5.106e-01,7.114e-04
5.150e-01,8.226e-04
5.194e-01,9.490e-04
5.238e-01,1.092e-03
5.282e-01,1.254e-03
5.326e-01,1.437e-03
5.370e-01,1.643e-03
5.413e-01,1.874e-03
5.457e-01,2.133e-03
5.501e-01,2.423e-03
5.545e-01,2.747e-03
5.589e-01,3.107e-03
5.633e-01,3.508e-03
5.677e-01,3.953e-03
5.721e-01,4.445e-03
5.765e-01,4.990e-03
5.808e-01,5.591e-03
5.852e-01,6.252e-03
5.896e-01,6.980e-03
5.940e-01,7.778e-03
5.984e-01,8.653e-03
6.028e-01,9.610e-03
6.072e-01,1.066e-02
6.116e-01,1.180e-02
6.160e-01,1.304e-02
6.203e-01,1.439e-02
6.247e-01,1.586e-02
6.291e-01,1.745e-02
6.335e-01,1.918e-02
6.379e-01,2.105e-02
6.423e-01,2.308e-02
6.467e-01,2.526e-02
6.511e-01,2.762e-02
6.555e-01,3.017e-02
6.598e-01,3.292e-02
6.642e-01,3.588e-02
6.686e-01,3.907e-02
6.730e-01,4.250e-02
6.774e-01,4.620e-02
6.818e-01,5.018e-02
6.862e-01,5.446e-02
6.906e-01,5.906e-02
6.950e-01,6.402e-02
6.993e-01,6.936e-02
7.037e-01,7.510e-02
7.081e-01,8.129e-02
7.125e-01,8.795e-02
7.169e-01,9.514e-02
7.213e-01,1.029e-01
7.257e-01,1.113e-01
7.301e-01,1.203e-01
7.345e-01,1.301e-01
7.388e-01,1.406e-01
7.432e-01,1.521e-01
7.476e-01,1.645e-01
7.520e-01,1.780e-01
7.564e-01,1.927e-01
7.608e-01,2.086e-01
7.652e-01,2.260e-01
7.696e-01,2.450e-01
7.740e-01,2.657e-01
7.784e-01,2.884e-01
7.827e-01,3.133e-01
7.871e-01,3.406e-01
7.915e-01,3.707e-01
7.959e-01,4.038e-01
8.003e-01,4.403e-01
8.047e-01,4.807e-01
8.091e-01,5.254e-01
8.135e-01,5.751e-01
8.179e-01,6.303e-01
8.222e-01,6.919e-01
8.266e-01,7.607e-01
8.310e-01,8.378e-01
8.354e-01,9.244e-01
8.398e-01,1.022e+00
8.442e-01,1.132e+00
8.486e-01,1.256e+00
8.530e-01,1.398e+00
8.574e-01,1.559e+00
8.617e-01,1.743e+00
8.661e-01,1.953e+00
8.705e-01,2.196e+00
8.749e-01,2.476e+00
8.793e-01,2.800e+00
8.837e-01,3.177e+00
8.881e-01,3.617e+00
8.925e-01,4.131e+00
8.969e-01,4.732e+00
9.012e-01,5.435e+00
9.056e-01,6.253e+00
9.100e-01,7.200e+00
9.144e-01,8.280e+00
9.188e-01,9.489e+00
9.232e-01,1.080e+01
9.276e-01,1.217e+01
9.320e-01,1.350e+01
9.364e-01,1.465e+01
9.407e-01,1.547e+01
9.451e-01,1.575e+01
9.495e-01,1.531e+01
9.539e-01,1.406e+01
9.583e-01,1.203e+01
9.627e-01,9.424e+00
9.671e-01,6.614e+00
9.715e-01,4.040e+00
9.759e-01,2.066e+00
9.802e-01,8.353e-01
9.846e-01,2.443e-01
9.890e-01,4.387e-02
9.934e-01,3.214e-03
9.978e-01,1.395e-05
