transmittance,probability_density
1.869e-01,2.843e-15
1.910e-01,4.897e-15
1.951e-01,8.330e-15
1.992e-01,1.400e-14
2.032e-01,2.327e-14
2.073e-01,3.826e-14
2.114e-01,6.224e-14
2.155e-01,1.002e-13
2.196e-01,1.598e-13
2.236e-01,2.525e-13
2.277e-01,3.954e-13
2.318e-01,6.136e-13
2.359e-01,9.443e-13
2.399e-01,1.441e-12
2.440e-01,2.183e-12
2.481e-01,3.281e-12
2.522e-01,4.895e-12
2.562e-01,7.250e-12
2.603e-01,1.066e-11
2.644e-01,1.558e-11
2.685e-01,2.262e-11
2.725e-01,3.262e-11
2.766e-01,4.677e-11
2.807e-01,6.664e-11
2.848e-01,9.441e-11
2.888e-01,1.330e-10
2.929e-01,1.863e-10
2.970e-01,2.596e-10
3.011e-01,3.599e-10
3.051e-01,4.963e-10
3.092e-01,6.812e-10
3.133e-01,9.303e-10
3.174e-01,1.264e-09
3.214e-01,1.711e-09
3.255e-01,2.305e-09
3.296e-01,3.091e-09
3.337e-01,4.127e-09
3.377e-01,5.488e-09
3.418e-01,7.268e-09
3.459e-01,9.587e-09
3.500e-01,1.260e-08
3.540e-01,1.649e-08
3.581e-01,2.150e-08
3.622e-01,2.793e-08
3.663e-01,3.616e-08
3.703e-01,4.664e-08
3.744e-01,5.996e-08
3.785e-01,7.682e-08
3.826e-01,9.810e-08
3.866e-01,1.249e-07
3.907e-01,1.584e-07
3.948e-01,2.004e-07
3.989e-01,2.527e-07
4.029e-01,3.176e-07
4.070e-01,3.982e-07
4.111e-01,4.976e-07
4.152e-01,6.202e-07
4.192e-01,7.707e-07
4.233e-01,9.552e-07
4.274e-01,1.181e-06
4.315e-01,1.455e-06
4.355e-01,1.789e-06
4.396e-01,2.194e-06
4.437e-01,2.684e-06
4.478e-01,3.275e-06
4.519e-01,3.987e-06
4.559e-01,4.841e-06
4.600e-01,5.865e-06
4.641e-01,7.088e-06
4.682e-01,8.547e-06
4.722e-01,1.028e-05
4.763e-01,1.234e-05
4.804e-01,1.478e-05
4.845e-01,1.767e-05
4.885e-01,2.107e-05
4.926e-01,2.507e-05
4.967e-01,2.978e-05
5.008e-01,3.529e-05
5.048e-01,4.174e-05
5.089e-01,4.927e-05
5.130e-01,5.805e-05
5.171e-01,6.825e-05
5.211e-01,8.010e-05
5.252e-01,9.382e-05
5.293e-01,1.097e-04
5.334e-01,1.280e-04
5.374e-01,1.491e-04
5.415e-01,1.734e-04
5.456e-01,2.013e-04
5.497e-01,2.332e-04
5.537e-01,2.698e-04
5.578e-01,3.115e-04
5.619e-01,3.591e-04
5.660e-01,4.133e-04
5.700e-01,4.748e-04
5.741e-01,5.447e-04
5.782e-01,6.239e-04
5.823e-01,7.134e-04
5.863e-01,8.145e-04
5.904e-01,9.285e-04
5.945e-01,1.057e-03
5.986e-01,1.201e-03
6.026e-01,1.363e-03
6.067e-01,1.545e-03
6.108e-01,1.748e-03
6.149e-01,1.975e-03
6.189e-01,2.229e-03
6.230e-01,2.511e-03
6.271e-01,2.826e-03
6.312e-01,3.176e-03
6.352e-01,3.564e-03
6.393e-01,3.995e-03
6.434e-01,4.473e-03
6.475e-01,5.001e-03
6.515e-01,5.585e-03
6.556e-01,6.229e-03
6.597e-01,6.940e-03
6.638e-01,7.722e-03
6.679e-01,8.584e-03
6.719e-01,9.531e-03
6.760e-01,1.057e-02
6.801e-01,1.171e-02
6.842e-01,1.297e-02
6.882e-01,1.434e-02
6.923e-01,1.584e-02
6.964e-01,1.748e-02
7.005e-01,1.928e-02
7.045e-01,2.124e-02
7.086e-01,2.339e-02
7.127e-01,2.573e-02
7.168e-01,2.829e-02
7.208e-01,3.108e-02
7.249e-01,3.412e-02
7.290e-01,3.744e-02
7.331e-01,4.106e-02
7.371e-01,4.501e-02
7.412e-01,4.932e-02
7.453e-01,5.402e-02
7.494e-01,5.914e-02
7.534e-01,6.474e-02
7.575e-01,7.085e-02
7.616e-01,7.753e-02
7.657e-01,8.482e-02
7.697e-01,9.281e-02
7.738e-01,1.015e-01
7.779e-01,1.111e-01
7.820e-01,1.216e-01
7.860e-01,1.332e-01
7.901e-01,1.459e-01
7.942e-01,1.598e-01
7.983e-01,1.752e-01
8.023e-01,1.922e-01
8.064e-01,2.110e-01
8.105e-01,2.318e-01
8.146e-01,2.549e-01
8.186e-01,2.805e-01
8.227e-01,3.091e-01
8.268e-01,3.410e-01
8.309e-01,3.767e-01
8.349e-01,4.167e-01
8.390e-01,4.618e-01
8.431e-01,5.125e-01
8.472e-01,5.699e-01
8.512e-01,6.350e-01
8.553e-01,7.091e-01
8.594e-01,7.936e-01
8.635e-01,8.904e-01
8.675e-01,1.002e+00
8.716e-01,1.130e+00
8.757e-01,1.279e+00
8.798e-01,1.452e+00
8.838e-01,1.655e+00
8.879e-01,1.893e+00
8.920e-01,2.175e+00
8.961e-01,2.509e+00
9.002e-01,2.908e+00
9.042e-01,3.389e+00
9.083e-01,3.970e+00
9.124e-01,4.677e+00
9.165e-01,5.542e+00
9.205e-01,6.601e+00
9.246e-01,7.897e+00
9.287e-01,9.468e+00
9.328e-01,1.134e+01
9.368e-01,1.349e+01
9.409e-01,1.584e+01
9.450e-01,1.817e+01
9.491e-01,2.013e+01
9.531e-01,2.126e+01
9.572e-01,2.103e+01
9.613e-01,1.913e+01
9.654e-01,1.562e+01
9.694e-01,1.113e+01
9.735e-01,6.693e+00
9.776e-01,3.248e+00
9.817e-01,1.205e+00
9.857e-01,3.168e-01
9.898e-01,5.185e-02
9.939e-01,3.661e-03
9.980e-01,1.710e-05
