transmittance,probability_density
2.525e-01,8.268e-14
2.563e-01,1.226e-13
2.600e-01,1.806e-13
2.638e-01,2.644e-13
2.675e-01,3.850e-13
2.712e-01,5.573e-13
2.750e-01,8.023e-13
2.787e-01,1.149e-12
2.825e-01,1.636e-12
2.862e-01,2.318e-12
2.900e-01,3.268e-12
2.937e-01,4.586e-12
2.975e-01,6.403e-12
3.012e-01,8.900e-12
3.050e-01,1.231e-11
3.087e-01,1.696e-11
3.125e-01,2.327e-11
3.162e-01,3.178e-11
3.200e-01,4.322e-11
3.237e-01,5.855e-11
3.274e-01,7.900e-11
3.312e-01,1.062e-10
3.349e-01,1.422e-10
3.387e-01,1.897e-10
3.424e-01,2.522e-10
3.462e-01,3.341e-10
3.499e-01,4.410e-10
3.537e-01,5.802e-10
3.574e-01,7.607e-10
3.612e-01,9.942e-10
3.649e-01,1.295e-09
3.687e-01,1.682e-09
3.724e-01,2.178e-09
3.762e-01,2.811e-09
3.799e-01,3.617e-09
3.836e-01,4.642e-09
3.874e-01,5.940e-09
3.911e-01,7.579e-09
3.949e-01,9.644e-09
3.986e-01,1.224e-08
4.024e-01,1.549e-08
4.061e-01,1.955e-08
4.099e-01,2.462e-08
4.136e-01,3.092e-08
4.174e-01,3.874e-08
4.211e-01,4.842e-08
4.249e-01,6.037e-08
4.286e-01,7.509e-08
4.324e-01,9.318e-08
4.361e-01,1.154e-07
4.399e-01,1.425e-07
4.436e-01,1.757e-07
4.473e-01,2.161e-07
4.511e-01,2.652e-07
4.548e-01,3.248e-07
4.586e-01,3.969e-07
4.623e-01,4.841e-07
4.661e-01,5.893e-07
4.698e-01,7.158e-07
4.736e-01,8.678e-07
4.773e-01,1.050e-06
4.811e-01,1.268e-06
4.848e-01,1.529e-06
4.886e-01,1.839e-06
4.923e-01,2.209e-06
4.961e-01,2.648e-06
4.998e-01,3.169e-06
5.035e-01,3.786e-06
5.073e-01,4.515e-06
5.110e-01,5.374e-06
5.148e-01,6.387e-06
5.185e-01,7.578e-06
5.223e-01,8.976e-06
5.260e-01,1.062e-05
5.298e-01,1.253e-05
5.335e-01,1.477e-05
5.373e-01,1.739e-05
5.410e-01,2.043e-05
5.448e-01,2.397e-05
5.485e-01,2.809e-05
5.523e-01,3.285e-05
5.560e-01,3.838e-05
5.597e-01,4.476e-05
5.635e-01,5.213e-05
5.672e-01,6.063e-05
5.710e-01,7.041e-05
5.747e-01,8.165e-05
5.785e-01,9.456e-05
5.822e-01,1.094e-04
5.860e-01,1.263e-04
5.897e-01,1.457e-04
5.935e-01,1.678e-04
5.972e-01,1.931e-04
6.010e-01,2.218e-04
6.047e-01,2.545e-04
6.085e-01,2.917e-04
6.122e-01,3.338e-04
6.160e-01,3.816e-04
6.197e-01,4.357e-04
6.234e-01,4.969e-04
6.272e-01,5.659e-04
6.309e-01,6.438e-04
6.347e-01,7.316e-04
6.384e-01,8.303e-04
6.422e-01,9.413e-04
6.459e-01,1.066e-03
6.497e-01,1.206e-03
6.534e-01,1.362e-03
6.572e-01,1.538e-03
6.609e-01,1.734e-03
6.647e-01,1.953e-03
6.684e-01,2.197e-03
6.722e-01,2.469e-03
6.759e-01,2.772e-03
6.796e-01,3.110e-03
6.834e-01,3.485e-03
6.871e-01,3.901e-03
6.909e-01,4.363e-03
6.946e-01,4.876e-03
6.984e-01,5.443e-03
7.021e-01,6.071e-03
7.059e-01,6.766e-03
7.096e-01,7.534e-03
7.134e-01,8.381e-03
7.171e-01,9.317e-03
7.209e-01,1.035e-02
7.246e-01,1.149e-02
7.284e-01,1.274e-02
7.321e-01,1.412e-02
7.358e-01,1.564e-02
7.396e-01,1.731e-02
7.433e-01,1.915e-02
7.471e-01,2.118e-02
7.508e-01,2.340e-02
7.546e-01,2.584e-02
7.583e-01,2.853e-02
7.621e-01,3.148e-02
7.658e-01,3.473e-02
7.696e-01,3.829e-02
7.733e-01,4.221e-02
7.771e-01,4.652e-02
7.808e-01,5.127e-02
7.846e-01,5.648e-02
7.883e-01,6.223e-02
7.921e-01,6.856e-02
7.958e-01,7.554e-02
7.995e-01,8.325e-02
8.033e-01,9.175e-02
8.070e-01,1.012e-01
8.108e-01,1.116e-01
8.145e-01,1.231e-01
8.183e-01,1.359e-01
8.220e-01,1.501e-01
8.258e-01,1.660e-01
8.295e-01,1.836e-01
8.333e-01,2.033e-01
8.370e-01,2.254e-01
8.408e-01,2.502e-01
8.445e-01,2.780e-01
8.483e-01,3.093e-01
8.520e-01,3.448e-01
8.557e-01,3.849e-01
8.595e-01,4.304e-01
8.632e-01,4.824e-01
8.670e-01,5.418e-01
8.707e-01,6.099e-01
8.745e-01,6.884e-01
8.782e-01,7.792e-01
8.820e-01,8.847e-01
8.857e-01,1.008e+00
8.895e-01,1.152e+00
8.932e-01,1.322e+00
8.970e-01,1.524e+00
9.007e-01,1.764e+00
9.045e-01,2.053e+00
9.082e-01,2.401e+00
9.119e-01,2.824e+00
9.157e-01,3.344e+00
9.194e-01,3.987e+00
9.232e-01,4.789e+00
9.269e-01,5.798e+00
9.307e-01,7.076e+00
9.344e-01,8.699e+00
9.382e-01,1.075e+01
9.419e-01,1.329e+01
9.457e-01,1.633e+01
9.494e-01,1.973e+01
9.532e-01,2.309e+01
9.569e-01,2.573e+01
9.607e-01,2.670e+01
9.644e-01,2.518e+01
9.682e-01,2.095e+01
9.719e-01,1.485e+01
9.756e-01,8.618e+00
9.794e-01,3.909e+00
9.831e-01,1.319e+00
9.869e-01,3.140e-01
9.906e-01,4.804e-02
9.944e-01,3.339e-03
9.981e-01,1.679e-05
