transmittance,probability_density
1.384e-03,3.172e-90
4.151e-03,1.603e-52
6.918e-03,1.224e-38
9.685e-03,9.351e-31
1.245e-02,1.615e-25
1.522e-02,9.820e-22
1.799e-02,7.490e-19
2.075e-02,1.417e-16
2.352e-02,9.975e-15
2.629e-02,3.381e-13
2.905e-02,6.562e-12
3.182e-02,8.239e-11
3.459e-02,7.310e-10
3.736e-02,4.894e-09
4.012e-02,2.601e-08
4.289e-02,1.141e-07
4.566e-02,4.261e-07
4.842e-02,1.389e-06
5.119e-02,4.037e-06
5.396e-02,1.063e-05
5.672e-02,2.572e-05
5.949e-02,5.787e-05
6.226e-02,1.223e-04
6.503e-02,2.446e-04
6.779e-02,4.665e-04
7.056e-02,8.532e-04
7.333e-02,1.503e-03
7.609e-02,2.562e-03
7.886e-02,4.236e-03
8.163e-02,6.813e-03
8.440e-02,1.068e-02
8.716e-02,1.636e-02
8.993e-02,2.450e-02
9.270e-02,3.594e-02
9.546e-02,5.166e-02
9.823e-02,7.287e-02
1.010e-01,1.010e-01
1.038e-01,1.375e-01
1.065e-01,1.841e-01
1.093e-01,2.427e-01
1.121e-01,3.151e-01
1.148e-01,4.032e-01
1.176e-01,5.089e-01
1.204e-01,6.338e-01
1.231e-01,7.795e-01
1.259e-01,9.471e-01
1.287e-01,1.138e+00
1.314e-01,1.351e+00
1.342e-01,1.588e+00
1.370e-01,1.848e+00
1.397e-01,2.129e+00
1.425e-01,2.431e+00
1.453e-01,2.751e+00
1.480e-01,3.087e+00
1.508e-01,3.436e+00
1.536e-01,3.795e+00
1.563e-01,4.160e+00
1.591e-01,4.529e+00
1.619e-01,4.897e+00
1.646e-01,5.260e+00
1.674e-01,5.615e+00
1.702e-01,5.959e+00
1.729e-01,6.288e+00
1.757e-01,6.598e+00
1.785e-01,6.887e+00
1.812e-01,7.153e+00
1.840e-01,7.393e+00
1.868e-01,7.606e+00
1.895e-01,7.789e+00
1.923e-01,7.943e+00
1.951e-01,8.067e+00
1.978e-01,8.160e+00
2.006e-01,8.222e+00
2.034e-01,8.255e+00
2.061e-01,8.258e+00
2.089e-01,8.234e+00
2.117e-01,8.183e+00
2.144e-01,8.106e+00
2.172e-01,8.005e+00
2.200e-01,7.883e+00
2.227e-01,7.741e+00
2.255e-01,7.581e+00
2.283e-01,7.404e+00
2.310e-01,7.214e+00
2.338e-01,7.011e+00
2.366e-01,6.797e+00
2.393e-01,6.576e+00
2.421e-01,6.347e+00
2.449e-01,6.114e+00
2.477e-01,5.877e+00
2.504e-01,5.638e+00
2.532e-01,5.399e+00
2.560e-01,5.160e+00
2.587e-01,4.923e+00
2.615e-01,4.689e+00
2.643e-01,4.458e+00
2.670e-01,4.232e+00
2.698e-01,4.011e+00
2.726e-01,3.796e+00
2.753e-01,3.588e+00
2.781e-01,3.386e+00
2.809e-01,3.191e+00
2.836e-01,3.003e+00
2.864e-01,2.823e+00
2.892e-01,2.650e+00
2.919e-01,2.485e+00
2.947e-01,2.327e+00
2.975e-01,2.177e+00
3.002e-01,2.035e+00
3.030e-01,1.900e+00
3.058e-01,1.772e+00
3.085e-01,1.651e+00
3.113e-01,1.536e+00
3.141e-01,1.429e+00
3.168e-01,1.328e+00
3.196e-01,1.232e+00
3.224e-01,1.143e+00
3.251e-01,1.059e+00
3.279e-01,9.811e-01
3.307e-01,9.079e-01
3.334e-01,8.395e-01
3.362e-01,7.757e-01
3.390e-01,7.163e-01
3.417e-01,6.610e-01
3.445e-01,6.095e-01
3.473e-01,5.617e-01
3.500e-01,5.173e-01
3.528e-01,4.762e-01
3.556e-01,4.381e-01
3.583e-01,4.028e-01
3.611e-01,3.701e-01
3.639e-01,3.399e-01
3.666e-01,3.121e-01
3.694e-01,2.863e-01
3.722e-01,2.626e-01
3.749e-01,2.407e-01
3.777e-01,2.206e-01
3.805e-01,2.020e-01
3.832e-01,1.849e-01
3.860e-01,1.692e-01
3.888e-01,1.548e-01
3.915e-01,1.416e-01
3.943e-01,1.294e-01
3.971e-01,1.183e-01
3.998e-01,1.080e-01
4.026e-01,9.864e-02
4.054e-01,9.005e-02
4.081e-01,8.218e-02
4.109e-01,7.497e-02
4.137e-01,6.838e-02
4.164e-01,6.235e-02
4.192e-01,5.683e-02
4.220e-01,5.179e-02
4.247e-01,4.719e-02
4.275e-01,4.298e-02
4.303e-01,3.914e-02
4.330e-01,3.563e-02
4.358e-01,3.243e-02
4.386e-01,2.952e-02
4.413e-01,2.686e-02
4.441e-01,2.443e-02
4.469e-01,2.222e-02
4.496e-01,2.021e-02
4.524e-01,1.837e-02
4.552e-01,1.670e-02
4.579e-01,1.518e-02
4.607e-01,1.379e-02
4.635e-01,1.253e-02
4.662e-01,1.139e-02
4.690e-01,1.034e-02
4.718e-01,9.393e-03
4.745e-01,8.530e-03
4.773e-01,7.745e-03
4.801e-01,7.032e-03
4.829e-01,6.383e-03
4.856e-01,5.794e-03
4.884e-01,5.259e-03
4.912e-01,4.772e-03
4.939e-01,4.331e-03
4.967e-01,3.929e-03
4.995e-01,3.565e-03
5.022e-01,3.234e-03
5.050e-01,2.934e-03
5.078e-01,2.661e-03
5.105e-01,2.414e-03
5.133e-01,2.189e-03
5.161e-01,1.985e-03
5.188e-01,1.801e-03
5.216e-01,1.633e-03
5.244e-01,1.481e-03
5.271e-01,1.342e-03
5.299e-01,1.217e-03
5.327e-01,1.104e-03
5.354e-01,1.001e-03
5.382e-01,9.070e-04
5.410e-01,8.223e-04
5.437e-01,7.454e-04
5.465e-01,6.758e-04
5.493e-01,6.126e-04
5.520e-01,5.553e-04
