transmittance,probability_density
3.025e-05,4.261e-33
9.075e-05,3.986e-17
1.512e-04,1.103e-11
2.117e-04,8.911e-09
2.722e-04,6.057e-07
3.327e-04,1.122e-05
3.932e-04,9.738e-05
4.537e-04,5.300e-04
5.142e-04,2.148e-03
5.747e-04,7.178e-03
6.352e-04,2.096e-02
6.957e-04,5.510e-02
7.562e-04,1.325e-01
8.167e-04,2.940e-01
8.772e-04,6.064e-01
9.377e-04,1.170e+00
9.983e-04,2.124e+00
1.059e-03,3.649e+00
1.119e-03,5.961e+00
1.180e-03,9.306e+00
1.240e-03,1.394e+01
1.301e-03,2.013e+01
1.361e-03,2.810e+01
1.422e-03,3.803e+01
1.482e-03,5.007e+01
1.543e-03,6.426e+01
1.603e-03,8.059e+01
1.664e-03,9.896e+01
1.724e-03,1.192e+02
1.785e-03,1.410e+02
1.845e-03,1.641e+02
1.906e-03,1.881e+02
1.966e-03,2.126e+02
2.027e-03,2.373e+02
2.087e-03,2.618e+02
2.148e-03,2.855e+02
2.208e-03,3.083e+02
2.269e-03,3.297e+02
2.329e-03,3.495e+02
2.390e-03,3.674e+02
2.450e-03,3.833e+02
2.511e-03,3.970e+02
2.571e-03,4.084e+02
2.632e-03,4.176e+02
2.692e-03,4.244e+02
2.753e-03,4.289e+02
2.813e-03,4.313e+02
2.874e-03,4.316e+02
2.934e-03,4.298e+02
2.995e-03,4.263e+02
3.055e-03,4.210e+02
3.116e-03,4.143e+02
3.176e-03,4.061e+02
3.237e-03,3.968e+02
3.297e-03,3.864e+02
3.358e-03,3.752e+02
3.418e-03,3.632e+02
3.479e-03,3.507e+02
3.539e-03,3.377e+02
3.600e-03,3.244e+02
3.660e-03,3.110e+02
3.721e-03,2.974e+02
3.781e-03,2.838e+02
3.842e-03,2.703e+02
3.902e-03,2.570e+02
3.963e-03,2.439e+02
4.023e-03,2.311e+02
4.084e-03,2.186e+02
4.144e-03,2.064e+02
4.205e-03,1.947e+02
4.265e-03,1.834e+02
4.326e-03,1.725e+02
4.386e-03,1.620e+02
4.447e-03,1.521e+02
4.507e-03,1.425e+02
4.568e-03,1.334e+02
4.628e-03,1.248e+02
4.689e-03,1.166e+02
4.749e-03,1.089e+02
4.810e-03,1.016e+02
4.870e-03,9.466e+01
4.931e-03,8.815e+01
4.991e-03,8.203e+01
5.052e-03,7.628e+01
5.112e-03,7.089e+01
5.173e-03,6.583e+01
5.233e-03,6.110e+01
5.294e-03,5.668e+01
5.354e-03,5.254e+01
5.415e-03,4.868e+01
5.475e-03,4.509e+01
5.536e-03,4.174e+01
5.596e-03,3.862e+01
5.657e-03,3.572e+01
5.717e-03,3.302e+01
5.778e-03,3.051e+01
5.838e-03,2.819e+01
5.899e-03,2.603e+01
5.959e-03,2.403e+01
6.020e-03,2.218e+01
6.080e-03,2.046e+01
6.141e-03,1.887e+01
6.201e-03,1.740e+01
6.262e-03,1.605e+01
6.322e-03,1.479e+01
6.383e-03,1.363e+01
6.443e-03,1.256e+01
6.504e-03,1.157e+01
6.564e-03,1.065e+01
6.625e-03,9.808e+00
6.685e-03,9.030e+00
6.746e-03,8.313e+00
6.806e-03,7.651e+00
6.867e-03,7.041e+00
6.927e-03,6.479e+00
6.988e-03,5.962e+00
7.048e-03,5.485e+00
7.109e-03,5.046e+00
7.169e-03,4.641e+00
7.230e-03,4.269e+00
7.290e-03,3.926e+00
7.351e-03,3.611e+00
7.411e-03,3.321e+00
7.472e-03,3.054e+00
7.532e-03,2.808e+00
7.593e-03,2.582e+00
7.653e-03,2.374e+00
7.714e-03,2.183e+00
7.774e-03,2.007e+00
7.835e-03,1.845e+00
7.895e-03,1.697e+00
7.956e-03,1.560e+00
8.016e-03,1.434e+00
8.077e-03,1.319e+00
8.137e-03,1.213e+00
8.198e-03,1.115e+00
8.258e-03,1.025e+00
8.319e-03,9.428e-01
8.379e-03,8.670e-01
8.440e-03,7.973e-01
8.500e-03,7.332e-01
8.561e-03,6.743e-01
8.621e-03,6.202e-01
8.682e-03,5.704e-01
8.742e-03,5.247e-01
8.803e-03,4.826e-01
8.863e-03,4.440e-01
8.924e-03,4.084e-01
8.984e-03,3.757e-01
9.045e-03,3.457e-01
9.105e-03,3.181e-01
9.166e-03,2.927e-01
9.226e-03,2.694e-01
9.287e-03,2.479e-01
9.347e-03,2.282e-01
9.408e-03,2.100e-01
9.468e-03,1.933e-01
9.529e-03,1.780e-01
9.589e-03,1.639e-01
9.650e-03,1.509e-01
9.710e-03,1.389e-01
9.771e-03,1.280e-01
9.831e-03,1.178e-01
9.892e-03,1.085e-01
9.952e-03,9.999e-02
1.001e-02,9.212e-02
1.007e-02,8.487e-02
1.013e-02,7.820e-02
1.019e-02,7.206e-02
1.025e-02,6.642e-02
1.032e-02,6.121e-02
1.038e-02,5.643e-02
1.044e-02,5.202e-02
1.050e-02,4.796e-02
1.056e-02,4.422e-02
1.062e-02,4.078e-02
1.068e-02,3.761e-02
1.074e-02,3.469e-02
1.080e-02,3.200e-02
1.086e-02,2.952e-02
1.092e-02,2.724e-02
1.098e-02,2.513e-02
1.104e-02,2.320e-02
1.110e-02,2.141e-02
1.116e-02,1.976e-02
1.122e-02,1.824e-02
1.128e-02,1.684e-02
1.134e-02,1.555e-02
1.140e-02,1.436e-02
1.146e-02,1.326e-02
1.153e-02,1.225e-02
1.159e-02,1.132e-02
1.165e-02,1.046e-02
1.171e-02,9.662e-03
1.177e-02,8.928e-03
1.183e-02,8.251e-03
1.189e-02,7.627e-03
1.195e-02,7.050e-03
1.201e-02,6.518e-03
1.207e-02,6.027e-03
