transmittance,probability_density
2.419e-04,4.323e-40
7.258e-04,1.094e-21
1.210e-03,3.025e-15
1.693e-03,1.020e-11
2.177e-03,1.921e-09
2.661e-03,7.707e-08
3.145e-03,1.215e-06
3.629e-03,1.042e-05
4.113e-03,5.903e-05
4.596e-03,2.494e-04
5.080e-03,8.521e-04
5.564e-03,2.486e-03
6.048e-03,6.422e-03
6.532e-03,1.505e-02
7.016e-03,3.253e-02
7.499e-03,6.555e-02
7.983e-03,1.241e-01
8.467e-03,2.224e-01
8.951e-03,3.787e-01
9.435e-03,6.158e-01
9.919e-03,9.603e-01
1.040e-02,1.441e+00
1.089e-02,2.088e+00
1.137e-02,2.929e+00
1.185e-02,3.990e+00
1.234e-02,5.291e+00
1.282e-02,6.845e+00
1.331e-02,8.657e+00
1.379e-02,1.072e+01
1.427e-02,1.302e+01
1.476e-02,1.554e+01
1.524e-02,1.825e+01
1.572e-02,2.110e+01
1.621e-02,2.406e+01
1.669e-02,2.708e+01
1.718e-02,3.011e+01
1.766e-02,3.311e+01
1.814e-02,3.602e+01
1.863e-02,3.881e+01
1.911e-02,4.143e+01
1.960e-02,4.386e+01
2.008e-02,4.606e+01
2.056e-02,4.801e+01
2.105e-02,4.970e+01
2.153e-02,5.111e+01
2.201e-02,5.223e+01
2.250e-02,5.307e+01
2.298e-02,5.363e+01
2.347e-02,5.392e+01
2.395e-02,5.395e+01
2.443e-02,5.373e+01
2.492e-02,5.329e+01
2.540e-02,5.263e+01
2.589e-02,5.179e+01
2.637e-02,5.077e+01
2.685e-02,4.960e+01
2.734e-02,4.830e+01
2.782e-02,4.689e+01
2.830e-02,4.539e+01
2.879e-02,4.382e+01
2.927e-02,4.219e+01
2.976e-02,4.052e+01
3.024e-02,3.882e+01
3.072e-02,3.712e+01
3.121e-02,3.541e+01
3.169e-02,3.371e+01
3.218e-02,3.203e+01
3.266e-02,3.038e+01
3.314e-02,2.877e+01
3.363e-02,2.719e+01
3.411e-02,2.566e+01
3.459e-02,2.418e+01
3.508e-02,2.276e+01
3.556e-02,2.138e+01
3.605e-02,2.007e+01
3.653e-02,1.881e+01
3.701e-02,1.761e+01
3.750e-02,1.647e+01
3.798e-02,1.539e+01
3.846e-02,1.436e+01
3.895e-02,1.339e+01
3.943e-02,1.247e+01
3.992e-02,1.161e+01
4.040e-02,1.079e+01
4.088e-02,1.003e+01
4.137e-02,9.312e+00
4.185e-02,8.640e+00
4.234e-02,8.010e+00
4.282e-02,7.421e+00
4.330e-02,6.872e+00
4.379e-02,6.359e+00
4.427e-02,5.881e+00
4.475e-02,5.436e+00
4.524e-02,5.022e+00
4.572e-02,4.638e+00
4.621e-02,4.280e+00
4.669e-02,3.949e+00
4.717e-02,3.642e+00
4.766e-02,3.357e+00
4.814e-02,3.093e+00
4.863e-02,2.849e+00
4.911e-02,2.624e+00
4.959e-02,2.415e+00
5.008e-02,2.222e+00
5.056e-02,2.044e+00
5.104e-02,1.880e+00
5.153e-02,1.729e+00
5.201e-02,1.589e+00
5.250e-02,1.460e+00
5.298e-02,1.342e+00
5.346e-02,1.233e+00
5.395e-02,1.132e+00
5.443e-02,1.040e+00
5.492e-02,9.544e-01
5.540e-02,8.761e-01
5.588e-02,8.041e-01
5.637e-02,7.379e-01
5.685e-02,6.771e-01
5.733e-02,6.212e-01
5.782e-02,5.698e-01
5.830e-02,5.227e-01
5.879e-02,4.794e-01
5.927e-02,4.396e-01
5.975e-02,4.031e-01
6.024e-02,3.697e-01
6.072e-02,3.389e-01
6.121e-02,3.107e-01
6.169e-02,2.849e-01
6.217e-02,2.612e-01
6.266e-02,2.394e-01
6.314e-02,2.194e-01
6.362e-02,2.012e-01
6.411e-02,1.844e-01
6.459e-02,1.690e-01
6.508e-02,1.549e-01
6.556e-02,1.420e-01
6.604e-02,1.301e-01
6.653e-02,1.193e-01
6.701e-02,1.093e-01
6.749e-02,1.002e-01
6.798e-02,9.186e-02
6.846e-02,8.420e-02
6.895e-02,7.718e-02
6.943e-02,7.075e-02
6.991e-02,6.486e-02
7.040e-02,5.946e-02
7.088e-02,5.451e-02
7.137e-02,4.998e-02
7.185e-02,4.582e-02
7.233e-02,4.201e-02
7.282e-02,3.852e-02
7.330e-02,3.532e-02
7.378e-02,3.239e-02
7.427e-02,2.971e-02
7.475e-02,2.725e-02
7.524e-02,2.499e-02
7.572e-02,2.292e-02
7.620e-02,2.103e-02
7.669e-02,1.929e-02
7.717e-02,1.770e-02
7.766e-02,1.624e-02
7.814e-02,1.490e-02
7.862e-02,1.367e-02
7.911e-02,1.255e-02
7.959e-02,1.152e-02
8.007e-02,1.057e-02
8.056e-02,9.702e-03
8.104e-02,8.907e-03
8.153e-02,8.178e-03
8.201e-02,7.509e-03
8.249e-02,6.895e-03
8.298e-02,6.332e-03
8.346e-02,5.816e-03
8.395e-02,5.342e-03
8.443e-02,4.907e-03
8.491e-02,4.508e-03
8.540e-02,4.142e-03
8.588e-02,3.806e-03
8.636e-02,3.497e-03
8.685e-02,3.214e-03
8.733e-02,2.954e-03
8.782e-02,2.716e-03
8.830e-02,2.497e-03
8.878e-02,2.296e-03
8.927e-02,2.111e-03
8.975e-02,1.941e-03
9.024e-02,1.785e-03
9.072e-02,1.642e-03
9.120e-02,1.511e-03
9.169e-02,1.390e-03
9.217e-02,1.279e-03
9.265e-02,1.177e-03
9.314e-02,1.083e-03
9.362e-02,9.969e-04
9.411e-02,9.176e-04
9.459e-02,8.448e-04
9.507e-02,7.778e-04
9.556e-02,7.162e-04
9.604e-02,6.596e-04
9.653e-02,6.075e-04
