transmittance,probability_density
6.245e-04,7.472e-50
1.874e-03,1.404e-27
3.123e-03,1.141e-19
4.372e-03,2.712e-15
5.621e-03,1.902e-12
6.870e-03,1.993e-10
8.119e-03,6.558e-09
9.368e-03,1.005e-07
1.062e-02,9.043e-07
1.187e-02,5.537e-06
1.312e-02,2.544e-05
1.436e-02,9.392e-05
1.561e-02,2.925e-04
1.686e-02,7.962e-04
1.811e-02,1.946e-03
1.936e-02,4.352e-03
2.061e-02,9.040e-03
2.186e-02,1.762e-02
2.311e-02,3.251e-02
2.436e-02,5.710e-02
2.561e-02,9.595e-02
2.685e-02,1.549e-01
2.810e-02,2.409e-01
2.935e-02,3.621e-01
3.060e-02,5.276e-01
3.185e-02,7.466e-01
3.310e-02,1.028e+00
3.435e-02,1.382e+00
3.560e-02,1.814e+00
3.685e-02,2.330e+00
3.810e-02,2.933e+00
3.935e-02,3.625e+00
4.059e-02,4.402e+00
4.184e-02,5.261e+00
4.309e-02,6.192e+00
4.434e-02,7.186e+00
4.559e-02,8.231e+00
4.684e-02,9.312e+00
4.809e-02,1.041e+01
4.934e-02,1.152e+01
5.059e-02,1.262e+01
5.184e-02,1.369e+01
5.308e-02,1.472e+01
5.433e-02,1.569e+01
5.558e-02,1.660e+01
5.683e-02,1.742e+01
5.808e-02,1.817e+01
5.933e-02,1.881e+01
6.058e-02,1.936e+01
6.183e-02,1.981e+01
6.308e-02,2.016e+01
6.433e-02,2.040e+01
6.558e-02,2.055e+01
6.682e-02,2.060e+01
6.807e-02,2.055e+01
6.932e-02,2.042e+01
7.057e-02,2.021e+01
7.182e-02,1.992e+01
7.307e-02,1.957e+01
7.432e-02,1.916e+01
7.557e-02,1.869e+01
7.682e-02,1.818e+01
7.807e-02,1.763e+01
7.931e-02,1.705e+01
8.056e-02,1.644e+01
8.181e-02,1.581e+01
8.306e-02,1.517e+01
8.431e-02,1.453e+01
8.556e-02,1.388e+01
8.681e-02,1.323e+01
8.806e-02,1.258e+01
8.931e-02,1.195e+01
9.056e-02,1.132e+01
9.181e-02,1.071e+01
9.305e-02,1.011e+01
9.430e-02,9.537e+00
9.555e-02,8.978e+00
9.680e-02,8.440e+00
9.805e-02,7.923e+00
9.930e-02,7.428e+00
1.005e-01,6.955e+00
1.018e-01,6.504e+00
1.030e-01,6.075e+00
1.043e-01,5.668e+00
1.055e-01,5.282e+00
1.068e-01,4.918e+00
1.080e-01,4.574e+00
1.093e-01,4.250e+00
1.105e-01,3.946e+00
1.118e-01,3.660e+00
1.130e-01,3.393e+00
1.143e-01,3.142e+00
1.155e-01,2.908e+00
1.168e-01,2.689e+00
1.180e-01,2.485e+00
1.193e-01,2.294e+00
1.205e-01,2.118e+00
1.218e-01,1.953e+00
1.230e-01,1.800e+00
1.243e-01,1.659e+00
1.255e-01,1.527e+00
1.268e-01,1.406e+00
1.280e-01,1.293e+00
1.293e-01,1.189e+00
1.305e-01,1.093e+00
1.318e-01,1.004e+00
1.330e-01,9.218e-01
1.343e-01,8.461e-01
1.355e-01,7.764e-01
1.368e-01,7.122e-01
1.380e-01,6.530e-01
1.393e-01,5.986e-01
1.405e-01,5.486e-01
1.418e-01,5.026e-01
1.430e-01,4.603e-01
1.443e-01,4.215e-01
1.455e-01,3.858e-01
1.468e-01,3.531e-01
1.480e-01,3.231e-01
1.493e-01,2.956e-01
1.505e-01,2.703e-01
1.518e-01,2.472e-01
1.530e-01,2.260e-01
1.543e-01,2.066e-01
1.555e-01,1.888e-01
1.568e-01,1.726e-01
1.580e-01,1.577e-01
1.593e-01,1.441e-01
1.605e-01,1.316e-01
1.618e-01,1.202e-01
1.630e-01,1.098e-01
1.643e-01,1.002e-01
1.655e-01,9.153e-02
1.667e-01,8.357e-02
1.680e-01,7.630e-02
1.692e-01,6.965e-02
1.705e-01,6.358e-02
1.717e-01,5.803e-02
1.730e-01,5.297e-02
1.742e-01,4.834e-02
1.755e-01,4.412e-02
1.767e-01,4.026e-02
1.780e-01,3.674e-02
1.792e-01,3.353e-02
1.805e-01,3.060e-02
1.817e-01,2.792e-02
1.830e-01,2.548e-02
1.842e-01,2.325e-02
1.855e-01,2.121e-02
1.867e-01,1.936e-02
1.880e-01,1.766e-02
1.892e-01,1.612e-02
1.905e-01,1.471e-02
1.917e-01,1.342e-02
1.930e-01,1.225e-02
1.942e-01,1.118e-02
1.955e-01,1.020e-02
1.967e-01,9.310e-03
1.980e-01,8.496e-03
1.992e-01,7.755e-03
2.005e-01,7.078e-03
2.017e-01,6.460e-03
2.030e-01,5.897e-03
2.042e-01,5.383e-03
2.055e-01,4.914e-03
2.067e-01,4.486e-03
2.080e-01,4.096e-03
2.092e-01,3.739e-03
2.105e-01,3.414e-03
2.117e-01,3.118e-03
2.130e-01,2.847e-03
2.142e-01,2.600e-03
2.155e-01,2.375e-03
2.167e-01,2.169e-03
2.180e-01,1.981e-03
2.192e-01,1.810e-03
2.205e-01,1.653e-03
2.217e-01,1.511e-03
2.230e-01,1.380e-03
2.242e-01,1.261e-03
2.255e-01,1.153e-03
2.267e-01,1.053e-03
2.280e-01,9.628e-04
2.292e-01,8.801e-04
2.304e-01,8.045e-04
2.317e-01,7.355e-04
2.329e-01,6.725e-04
2.342e-01,6.149e-04
2.354e-01,5.623e-04
2.367e-01,5.143e-04
2.379e-01,4.704e-04
2.392e-01,4.302e-04
2.404e-01,3.936e-04
2.417e-01,3.601e-04
2.429e-01,3.295e-04
2.442e-01,3.015e-04
2.454e-01,2.759e-04
2.467e-01,2.525e-04
2.479e-01,2.311e-04
2.492e-01,2.116e-04
