transmittance,probability_density
1.045e-01,1.778e-09
1.083e-01,5.375e-09
1.122e-01,1.489e-08
1.160e-01,3.814e-08
1.199e-01,9.092e-08
1.238e-01,2.030e-07
1.276e-01,4.272e-07
1.315e-01,8.515e-07
1.353e-01,1.616e-06
1.392e-01,2.933e-06
1.430e-01,5.111e-06
1.469e-01,8.590e-06
1.508e-01,1.397e-05
1.546e-01,2.208e-05
1.585e-01,3.399e-05
1.623e-01,5.115e-05
1.662e-01,7.548e-05
1.701e-01,1.095e-04
1.739e-01,1.565e-04
1.778e-01,2.209e-04
1.816e-01,3.084e-04
1.855e-01,4.268e-04
1.893e-01,5.860e-04
1.932e-01,7.990e-04
1.971e-01,1.083e-03
2.009e-01,1.459e-03
2.048e-01,1.956e-03
2.086e-01,2.609e-03
2.125e-01,3.462e-03
2.163e-01,4.572e-03
2.202e-01,6.009e-03
2.241e-01,7.858e-03
2.279e-01,1.022e-02
2.318e-01,1.323e-02
2.356e-01,1.704e-02
2.395e-01,2.183e-02
2.433e-01,2.781e-02
2.472e-01,3.523e-02
2.511e-01,4.438e-02
2.549e-01,5.560e-02
2.588e-01,6.926e-02
2.626e-01,8.576e-02
2.665e-01,1.056e-01
2.703e-01,1.292e-01
2.742e-01,1.572e-01
2.781e-01,1.901e-01
2.819e-01,2.285e-01
2.858e-01,2.731e-01
2.896e-01,3.244e-01
2.935e-01,3.830e-01
2.974e-01,4.497e-01
3.012e-01,5.247e-01
3.051e-01,6.088e-01
3.089e-01,7.024e-01
3.128e-01,8.056e-01
3.166e-01,9.190e-01
3.205e-01,1.042e+00
3.244e-01,1.176e+00
3.282e-01,1.320e+00
3.321e-01,1.473e+00
3.359e-01,1.636e+00
3.398e-01,1.807e+00
3.436e-01,1.987e+00
3.475e-01,2.173e+00
3.514e-01,2.366e+00
3.552e-01,2.564e+00
3.591e-01,2.765e+00
3.629e-01,2.969e+00
3.668e-01,3.173e+00
3.706e-01,3.378e+00
3.745e-01,3.580e+00
3.784e-01,3.778e+00
3.822e-01,3.971e+00
3.861e-01,4.158e+00
3.899e-01,4.336e+00
3.938e-01,4.505e+00
3.976e-01,4.663e+00
4.015e-01,4.809e+00
4.054e-01,4.943e+00
4.092e-01,5.062e+00
4.131e-01,5.167e+00
4.169e-01,5.256e+00
4.208e-01,5.330e+00
4.247e-01,5.388e+00
4.285e-01,5.429e+00
4.324e-01,5.455e+00
4.362e-01,5.464e+00
4.401e-01,5.458e+00
4.439e-01,5.436e+00
4.478e-01,5.399e+00
4.517e-01,5.349e+00
4.555e-01,5.284e+00
4.594e-01,5.208e+00
4.632e-01,5.119e+00
4.671e-01,5.020e+00
4.709e-01,4.910e+00
4.748e-01,4.792e+00
4.787e-01,4.666e+00
4.825e-01,4.533e+00
4.864e-01,4.394e+00
4.902e-01,4.251e+00
4.941e-01,4.103e+00
4.979e-01,3.953e+00
5.018e-01,3.800e+00
5.057e-01,3.646e+00
5.095e-01,3.492e+00
5.134e-01,3.338e+00
5.172e-01,3.185e+00
5.211e-01,3.033e+00
5.249e-01,2.884e+00
5.288e-01,2.737e+00
5.327e-01,2.593e+00
5.365e-01,2.453e+00
5.404e-01,2.317e+00
5.442e-01,2.185e+00
5.481e-01,2.057e+00
5.520e-01,1.934e+00
5.558e-01,1.816e+00
5.597e-01,1.702e+00
5.635e-01,1.593e+00
5.674e-01,1.489e+00
5.712e-01,1.390e+00
5.751e-01,1.296e+00
5.790e-01,1.207e+00
5.828e-01,1.122e+00
5.867e-01,1.042e+00
5.905e-01,9.667e-01
5.944e-01,8.956e-01
5.982e-01,8.288e-01
6.021e-01,7.662e-01
6.060e-01,7.075e-01
6.098e-01,6.525e-01
6.137e-01,6.012e-01
6.175e-01,5.534e-01
6.214e-01,5.088e-01
6.252e-01,4.674e-01
6.291e-01,4.289e-01
6.330e-01,3.932e-01
6.368e-01,3.601e-01
6.407e-01,3.295e-01
6.445e-01,3.012e-01
6.484e-01,2.752e-01
6.522e-01,2.511e-01
6.561e-01,2.290e-01
6.600e-01,2.086e-01
6.638e-01,1.899e-01
6.677e-01,1.728e-01
6.715e-01,1.570e-01
6.754e-01,1.426e-01
6.793e-01,1.294e-01
6.831e-01,1.174e-01
6.870e-01,1.064e-01
6.908e-01,9.632e-02
6.947e-01,8.716e-02
6.985e-01,7.882e-02
7.024e-01,7.124e-02
7.063e-01,6.434e-02
7.101e-01,5.807e-02
7.140e-01,5.238e-02
7.178e-01,4.722e-02
7.217e-01,4.254e-02
7.255e-01,3.830e-02
7.294e-01,3.447e-02
7.333e-01,3.100e-02
7.371e-01,2.787e-02
7.410e-01,2.503e-02
7.448e-01,2.248e-02
7.487e-01,2.017e-02
7.525e-01,1.810e-02
7.564e-01,1.622e-02
7.603e-01,1.454e-02
7.641e-01,1.302e-02
7.680e-01,1.166e-02
7.718e-01,1.043e-02
7.757e-01,9.331e-03
7.795e-01,8.343e-03
7.834e-01,7.456e-03
7.873e-01,6.660e-03
7.911e-01,5.947e-03
7.950e-01,5.308e-03
7.988e-01,4.736e-03
8.027e-01,4.224e-03
8.066e-01,3.766e-03
8.104e-01,3.356e-03
8.143e-01,2.990e-03
8.181e-01,2.663e-03
8.220e-01,2.370e-03
8.258e-01,2.110e-03
8.297e-01,1.877e-03
8.336e-01,1.669e-03
8.374e-01,1.484e-03
8.413e-01,1.319e-03
8.451e-01,1.172e-03
8.490e-01,1.041e-03
8.528e-01,9.243e-04
8.567e-01,8.205e-04
8.606e-01,7.282e-04
8.644e-01,6.460e-04
8.683e-01,5.730e-04
8.721e-01,5.081e-04
