transmittance,probability_density
2.071e-03,1.794e-163
6.213e-03,4.869e-96
1.036e-02,5.444e-71
1.450e-02,1.117e-56
1.864e-02,4.025e-47
2.278e-02,3.467e-40
2.692e-02,6.953e-35
3.107e-02,1.106e-30
3.521e-02,2.891e-27
3.935e-02,1.978e-24
4.349e-02,4.847e-22
4.763e-02,5.295e-20
5.178e-02,3.026e-18
5.592e-02,1.019e-16
6.006e-02,2.215e-15
6.420e-02,3.336e-14
6.834e-02,3.681e-13
7.249e-02,3.114e-12
7.663e-02,2.096e-11
8.077e-02,1.157e-10
8.491e-02,5.376e-10
8.905e-02,2.148e-09
9.320e-02,7.523e-09
9.734e-02,2.346e-08
1.015e-01,6.611e-08
1.056e-01,1.704e-07
1.098e-01,4.064e-07
1.139e-01,9.060e-07
1.180e-01,1.905e-06
1.222e-01,3.808e-06
1.263e-01,7.287e-06
1.305e-01,1.343e-05
1.346e-01,2.396e-05
1.388e-01,4.153e-05
1.429e-01,7.017e-05
1.470e-01,1.159e-04
1.512e-01,1.874e-04
1.553e-01,2.971e-04
1.595e-01,4.625e-04
1.636e-01,7.078e-04
1.678e-01,1.066e-03
1.719e-01,1.580e-03
1.760e-01,2.310e-03
1.802e-01,3.331e-03
1.843e-01,4.743e-03
1.885e-01,6.672e-03
1.926e-01,9.280e-03
1.967e-01,1.277e-02
2.009e-01,1.738e-02
2.050e-01,2.343e-02
2.092e-01,3.127e-02
2.133e-01,4.135e-02
2.175e-01,5.417e-02
2.216e-01,7.032e-02
2.257e-01,9.046e-02
2.299e-01,1.153e-01
2.340e-01,1.458e-01
2.382e-01,1.827e-01
2.423e-01,2.269e-01
2.465e-01,2.794e-01
2.506e-01,3.413e-01
2.547e-01,4.133e-01
2.589e-01,4.965e-01
2.630e-01,5.916e-01
2.672e-01,6.993e-01
2.713e-01,8.201e-01
2.754e-01,9.546e-01
2.796e-01,1.103e+00
2.837e-01,1.265e+00
2.879e-01,1.440e+00
2.920e-01,1.628e+00
2.962e-01,1.828e+00
3.003e-01,2.039e+00
3.044e-01,2.259e+00
3.086e-01,2.487e+00
3.127e-01,2.722e+00
3.169e-01,2.960e+00
3.210e-01,3.201e+00
3.252e-01,3.442e+00
3.293e-01,3.680e+00
3.334e-01,3.914e+00
3.376e-01,4.140e+00
3.417e-01,4.357e+00
3.459e-01,4.563e+00
3.500e-01,4.756e+00
3.541e-01,4.934e+00
3.583e-01,5.095e+00
3.624e-01,5.237e+00
3.666e-01,5.361e+00
3.707e-01,5.465e+00
3.749e-01,5.548e+00
3.790e-01,5.610e+00
3.831e-01,5.651e+00
3.873e-01,5.671e+00
3.914e-01,5.670e+00
3.956e-01,5.650e+00
3.997e-01,5.610e+00
4.038e-01,5.552e+00
4.080e-01,5.476e+00
4.121e-01,5.385e+00
4.163e-01,5.279e+00
4.204e-01,5.159e+00
4.246e-01,5.028e+00
4.287e-01,4.886e+00
4.328e-01,4.735e+00
4.370e-01,4.577e+00
4.411e-01,4.412e+00
4.453e-01,4.242e+00
4.494e-01,4.069e+00
4.536e-01,3.894e+00
4.577e-01,3.717e+00
4.618e-01,3.541e+00
4.660e-01,3.365e+00
4.701e-01,3.191e+00
4.743e-01,3.020e+00
4.784e-01,2.852e+00
4.825e-01,2.688e+00
4.867e-01,2.529e+00
4.908e-01,2.375e+00
4.950e-01,2.226e+00
4.991e-01,2.082e+00
5.033e-01,1.944e+00
5.074e-01,1.813e+00
5.115e-01,1.687e+00
5.157e-01,1.568e+00
5.198e-01,1.455e+00
5.240e-01,1.348e+00
5.281e-01,1.247e+00
5.323e-01,1.152e+00
5.364e-01,1.062e+00
5.405e-01,9.784e-01
5.447e-01,9.000e-01
5.488e-01,8.267e-01
5.530e-01,7.585e-01
5.571e-01,6.950e-01
5.612e-01,6.361e-01
5.654e-01,5.815e-01
5.695e-01,5.309e-01
5.737e-01,4.842e-01
5.778e-01,4.411e-01
5.820e-01,4.014e-01
5.861e-01,3.649e-01
5.902e-01,3.314e-01
5.944e-01,3.007e-01
5.985e-01,2.725e-01
6.027e-01,2.468e-01
6.068e-01,2.232e-01
6.110e-01,2.018e-01
6.151e-01,1.822e-01
6.192e-01,1.644e-01
6.234e-01,1.482e-01
6.275e-01,1.335e-01
6.317e-01,1.202e-01
6.358e-01,1.081e-01
6.399e-01,9.714e-02
6.441e-01,8.723e-02
6.482e-01,7.828e-02
6.524e-01,7.020e-02
6.565e-01,6.290e-02
6.607e-01,5.633e-02
6.648e-01,5.041e-02
6.689e-01,4.509e-02
6.731e-01,4.030e-02
6.772e-01,3.600e-02
6.814e-01,3.214e-02
6.855e-01,2.867e-02
6.897e-01,2.557e-02
6.938e-01,2.279e-02
6.979e-01,2.030e-02
7.021e-01,1.807e-02
7.062e-01,1.608e-02
7.104e-01,1.430e-02
7.145e-01,1.271e-02
7.186e-01,1.130e-02
7.228e-01,1.003e-02
7.269e-01,8.907e-03
7.311e-01,7.903e-03
7.352e-01,7.010e-03
7.394e-01,6.215e-03
7.435e-01,5.508e-03
7.476e-01,4.879e-03
7.518e-01,4.321e-03
7.559e-01,3.825e-03
7.601e-01,3.384e-03
7.642e-01,2.994e-03
7.684e-01,2.647e-03
7.725e-01,2.340e-03
7.766e-01,2.068e-03
7.808e-01,1.826e-03
7.849e-01,1.613e-03
7.891e-01,1.424e-03
7.932e-01,1.257e-03
7.973e-01,1.109e-03
8.015e-01,9.780e-04
8.056e-01,8.624e-04
8.098e-01,7.603e-04
8.139e-01,6.701e-04
8.181e-01,5.904e-04
8.222e-01,5.201e-04
8.263e-01,4.581e-04
