transmittance,probability_density
2.833e-01,1.025e-08
2.868e-01,1.882e-08
2.904e-01,3.363e-08
2.940e-01,5.852e-08
2.976e-01,9.926e-08
3.012e-01,1.642e-07
3.048e-01,2.654e-07
3.084e-01,4.190e-07
3.120e-01,6.471e-07
3.156e-01,9.783e-07
3.192e-01,1.449e-06
3.228e-01,2.104e-06
3.264e-01,2.998e-06
3.300e-01,4.196e-06
3.335e-01,5.771e-06
3.371e-01,7.808e-06
3.407e-01,1.040e-05
3.443e-01,1.366e-05
3.479e-01,1.769e-05
3.515e-01,2.262e-05
3.551e-01,2.861e-05
3.587e-01,3.580e-05
3.623e-01,4.440e-05
3.659e-01,5.464e-05
3.695e-01,6.681e-05
3.731e-01,8.128e-05
3.767e-01,9.853e-05
3.803e-01,1.192e-04
3.838e-01,1.439e-04
3.874e-01,1.739e-04
3.910e-01,2.101e-04
3.946e-01,2.543e-04
3.982e-01,3.082e-04
4.018e-01,3.742e-04
4.054e-01,4.550e-04
4.090e-01,5.540e-04
4.126e-01,6.750e-04
4.162e-01,8.227e-04
4.198e-01,1.003e-03
4.234e-01,1.221e-03
4.270e-01,1.485e-03
4.306e-01,1.803e-03
4.341e-01,2.185e-03
4.377e-01,2.642e-03
4.413e-01,3.188e-03
4.449e-01,3.837e-03
4.485e-01,4.607e-03
4.521e-01,5.518e-03
4.557e-01,6.594e-03
4.593e-01,7.861e-03
4.629e-01,9.350e-03
4.665e-01,1.110e-02
4.701e-01,1.315e-02
4.737e-01,1.555e-02
4.773e-01,1.835e-02
4.809e-01,2.163e-02
4.844e-01,2.546e-02
4.880e-01,2.991e-02
4.916e-01,3.510e-02
4.952e-01,4.113e-02
4.988e-01,4.814e-02
5.024e-01,5.626e-02
5.060e-01,6.567e-02
5.096e-01,7.655e-02
5.132e-01,8.910e-02
5.168e-01,1.036e-01
5.204e-01,1.202e-01
5.240e-01,1.393e-01
5.276e-01,1.611e-01
5.311e-01,1.860e-01
5.347e-01,2.143e-01
5.383e-01,2.465e-01
5.419e-01,2.829e-01
5.455e-01,3.239e-01
5.491e-01,3.701e-01
5.527e-01,4.217e-01
5.563e-01,4.794e-01
5.599e-01,5.435e-01
5.635e-01,6.146e-01
5.671e-01,6.929e-01
5.707e-01,7.790e-01
5.743e-01,8.733e-01
5.779e-01,9.759e-01
5.814e-01,1.087e+00
5.850e-01,1.207e+00
5.886e-01,1.337e+00
5.922e-01,1.475e+00
5.958e-01,1.622e+00
5.994e-01,1.778e+00
6.030e-01,1.943e+00
6.066e-01,2.115e+00
6.102e-01,2.296e+00
6.138e-01,2.483e+00
6.174e-01,2.676e+00
6.210e-01,2.874e+00
6.246e-01,3.077e+00
6.282e-01,3.282e+00
6.317e-01,3.489e+00
6.353e-01,3.697e+00
6.389e-01,3.904e+00
6.425e-01,4.109e+00
6.461e-01,4.310e+00
6.497e-01,4.505e+00
6.533e-01,4.694e+00
6.569e-01,4.874e+00
6.605e-01,5.045e+00
6.641e-01,5.205e+00
6.677e-01,5.352e+00
6.713e-01,5.486e+00
6.749e-01,5.605e+00
6.785e-01,5.709e+00
6.820e-01,5.796e+00
6.856e-01,5.867e+00
6.892e-01,5.920e+00
6.928e-01,5.956e+00
6.964e-01,5.973e+00
7.000e-01,5.973e+00
7.036e-01,5.956e+00
7.072e-01,5.920e+00
7.108e-01,5.869e+00
7.144e-01,5.801e+00
7.180e-01,5.717e+00
7.216e-01,5.619e+00
7.252e-01,5.507e+00
7.287e-01,5.383e+00
7.323e-01,5.248e+00
7.359e-01,5.102e+00
7.395e-01,4.947e+00
7.431e-01,4.784e+00
7.467e-01,4.615e+00
7.503e-01,4.440e+00
7.539e-01,4.262e+00
7.575e-01,4.080e+00
7.611e-01,3.896e+00
7.647e-01,3.712e+00
7.683e-01,3.528e+00
7.719e-01,3.345e+00
7.755e-01,3.164e+00
7.790e-01,2.986e+00
7.826e-01,2.811e+00
7.862e-01,2.641e+00
7.898e-01,2.476e+00
7.934e-01,2.315e+00
7.970e-01,2.161e+00
8.006e-01,2.012e+00
8.042e-01,1.870e+00
8.078e-01,1.734e+00
8.114e-01,1.605e+00
8.150e-01,1.482e+00
8.186e-01,1.366e+00
8.222e-01,1.256e+00
8.258e-01,1.153e+00
8.293e-01,1.057e+00
8.329e-01,9.665e-01
8.365e-01,8.822e-01
8.401e-01,8.037e-01
8.437e-01,7.308e-01
8.473e-01,6.634e-01
8.509e-01,6.011e-01
8.545e-01,5.436e-01
8.581e-01,4.908e-01
8.617e-01,4.424e-01
8.653e-01,3.980e-01
8.689e-01,3.575e-01
8.725e-01,3.206e-01
8.761e-01,2.870e-01
8.796e-01,2.565e-01
8.832e-01,2.289e-01
8.868e-01,2.040e-01
8.904e-01,1.814e-01
8.940e-01,1.611e-01
8.976e-01,1.429e-01
9.012e-01,1.265e-01
9.048e-01,1.119e-01
9.084e-01,9.876e-02
9.120e-01,8.706e-02
9.156e-01,7.664e-02
9.192e-01,6.737e-02
9.228e-01,5.913e-02
9.263e-01,5.183e-02
9.299e-01,4.537e-02
9.335e-01,3.967e-02
9.371e-01,3.463e-02
9.407e-01,3.019e-02
9.443e-01,2.629e-02
9.479e-01,2.286e-02
9.515e-01,1.986e-02
9.551e-01,1.722e-02
9.587e-01,1.492e-02
9.623e-01,1.291e-02
9.659e-01,1.116e-02
9.695e-01,9.633e-03
9.731e-01,8.305e-03
9.766e-01,7.152e-03
9.802e-01,6.153e-03
9.838e-01,5.286e-03
9.874e-01,4.537e-03
9.910e-01,3.890e-03
9.946e-01,3.331e-03
9.982e-01,2.849e-03
