transmittance,probability_density
6.074e-01,1.550e-21
6.094e-01,4.437e-21
6.114e-01,1.249e-20
6.133e-01,3.455e-20
6.153e-01,9.401e-20
6.173e-01,2.515e-19
6.192e-01,6.621e-19
6.212e-01,1.714e-18
6.232e-01,4.368e-18
6.251e-01,1.095e-17
6.271e-01,2.703e-17
6.291e-01,6.565e-17
6.311e-01,1.570e-16
6.330e-01,3.697e-16
6.350e-01,8.572e-16
6.370e-01,1.958e-15
6.389e-01,4.405e-15
6.409e-01,9.764e-15
6.429e-01,2.132e-14
6.448e-01,4.590e-14
6.468e-01,9.736e-14
6.488e-01,2.036e-13
6.507e-01,4.197e-13
6.527e-01,8.531e-13
6.547e-01,1.710e-12
6.566e-01,3.380e-12
6.586e-01,6.592e-12
6.606e-01,1.268e-11
6.625e-01,2.407e-11
6.645e-01,4.508e-11
6.665e-01,8.332e-11
6.684e-01,1.520e-10
6.704e-01,2.738e-10
6.724e-01,4.868e-10
6.743e-01,8.546e-10
6.763e-01,1.482e-09
6.783e-01,2.537e-09
6.802e-01,4.292e-09
6.822e-01,7.173e-09
6.842e-01,1.184e-08
6.861e-01,1.933e-08
6.881e-01,3.117e-08
6.901e-01,4.968e-08
6.921e-01,7.830e-08
6.940e-01,1.220e-07
6.960e-01,1.880e-07
6.980e-01,2.864e-07
6.999e-01,4.318e-07
7.019e-01,6.439e-07
7.039e-01,9.500e-07
7.058e-01,1.387e-06
7.078e-01,2.004e-06
7.098e-01,2.867e-06
7.117e-01,4.061e-06
7.137e-01,5.695e-06
7.157e-01,7.910e-06
7.176e-01,1.088e-05
7.196e-01,1.483e-05
7.216e-01,2.003e-05
7.235e-01,2.681e-05
7.255e-01,3.557e-05
7.275e-01,4.679e-05
7.294e-01,6.103e-05
7.314e-01,7.896e-05
7.334e-01,1.013e-04
7.353e-01,1.291e-04
7.373e-01,1.631e-04
7.393e-01,2.046e-04
7.412e-01,2.549e-04
7.432e-01,3.153e-04
7.452e-01,3.874e-04
7.471e-01,4.730e-04
7.491e-01,5.740e-04
7.511e-01,6.923e-04
7.531e-01,8.304e-04
7.550e-01,9.907e-04
7.570e-01,1.176e-03
7.590e-01,1.389e-03
7.609e-01,1.633e-03
7.629e-01,1.912e-03
7.649e-01,2.230e-03
7.668e-01,2.592e-03
7.688e-01,3.002e-03
7.708e-01,3.466e-03
7.727e-01,3.992e-03
7.747e-01,4.587e-03
7.767e-01,5.260e-03
7.786e-01,6.020e-03
7.806e-01,6.881e-03
7.826e-01,7.856e-03
7.845e-01,8.961e-03
7.865e-01,1.021e-02
7.885e-01,1.164e-02
7.904e-01,1.326e-02
7.924e-01,1.510e-02
7.944e-01,1.721e-02
7.963e-01,1.961e-02
7.983e-01,2.235e-02
8.003e-01,2.549e-02
8.022e-01,2.908e-02
8.042e-01,3.320e-02
8.062e-01,3.792e-02
8.081e-01,4.335e-02
8.101e-01,4.957e-02
8.121e-01,5.673e-02
8.140e-01,6.497e-02
8.160e-01,7.446e-02
8.180e-01,8.539e-02
8.200e-01,9.800e-02
8.219e-01,1.125e-01
8.239e-01,1.294e-01
8.259e-01,1.488e-01
8.278e-01,1.712e-01
8.298e-01,1.972e-01
8.318e-01,2.273e-01
8.337e-01,2.622e-01
8.357e-01,3.025e-01
8.377e-01,3.492e-01
8.396e-01,4.031e-01
8.416e-01,4.655e-01
8.436e-01,5.374e-01
8.455e-01,6.203e-01
8.475e-01,7.156e-01
8.495e-01,8.250e-01
8.514e-01,9.501e-01
8.534e-01,1.093e+00
8.554e-01,1.255e+00
8.573e-01,1.439e+00
8.593e-01,1.646e+00
8.613e-01,1.878e+00
8.632e-01,2.138e+00
8.652e-01,2.428e+00
8.672e-01,2.747e+00
8.691e-01,3.099e+00
8.711e-01,3.484e+00
8.731e-01,3.902e+00
8.750e-01,4.354e+00
8.770e-01,4.838e+00
8.790e-01,5.354e+00
8.810e-01,5.899e+00
8.829e-01,6.471e+00
8.849e-01,7.066e+00
8.869e-01,7.680e+00
8.888e-01,8.307e+00
8.908e-01,8.942e+00
8.928e-01,9.578e+00
8.947e-01,1.021e+01
8.967e-01,1.083e+01
8.987e-01,1.142e+01
9.006e-01,1.199e+01
9.026e-01,1.251e+01
9.046e-01,1.300e+01
9.065e-01,1.343e+01
9.085e-01,1.380e+01
9.105e-01,1.411e+01
9.124e-01,1.435e+01
9.144e-01,1.451e+01
9.164e-01,1.460e+01
9.183e-01,1.461e+01
9.203e-01,1.454e+01
9.223e-01,1.439e+01
9.242e-01,1.417e+01
9.262e-01,1.388e+01
9.282e-01,1.352e+01
9.301e-01,1.310e+01
9.321e-01,1.263e+01
9.341e-01,1.211e+01
9.360e-01,1.155e+01
9.380e-01,1.095e+01
9.400e-01,1.034e+01
9.420e-01,9.701e+00
9.439e-01,9.059e+00
9.459e-01,8.414e+00
9.479e-01,7.775e+00
9.498e-01,7.147e+00
9.518e-01,6.536e+00
9.538e-01,5.947e+00
9.557e-01,5.383e+00
9.577e-01,4.847e+00
9.597e-01,4.343e+00
9.616e-01,3.871e+00
9.636e-01,3.434e+00
9.656e-01,3.030e+00
9.675e-01,2.661e+00
9.695e-01,2.325e+00
9.715e-01,2.021e+00
9.734e-01,1.748e+00
9.754e-01,1.505e+00
9.774e-01,1.290e+00
9.793e-01,1.099e+00
9.813e-01,9.328e-01
9.833e-01,7.876e-01
9.852e-01,6.618e-01
9.872e-01,5.535e-01
9.892e-01,4.607e-01
9.911e-01,3.817e-01
9.931e-01,3.148e-01
9.951e-01,2.583e-01
9.970e-01,2.111e-01
9.990e-01,1.716e-01
