transmittance,probability_density
5.194e-01,4.989e-18
5.218e-01,1.337e-17
5.242e-01,3.513e-17
5.266e-01,9.052e-17
5.290e-01,2.288e-16
5.314e-01,5.673e-16
5.338e-01,1.380e-15
5.362e-01,3.297e-15
5.387e-01,7.734e-15
5.411e-01,1.781e-14
5.435e-01,4.031e-14
5.459e-01,8.961e-14
5.483e-01,1.958e-13
5.507e-01,4.205e-13
5.531e-01,8.882e-13
5.555e-01,1.845e-12
5.579e-01,3.769e-12
5.603e-01,7.577e-12
5.627e-01,1.499e-11
5.652e-01,2.919e-11
5.676e-01,5.597e-11
5.700e-01,1.057e-10
5.724e-01,1.966e-10
5.748e-01,3.602e-10
5.772e-01,6.503e-10
5.796e-01,1.157e-09
5.820e-01,2.030e-09
5.844e-01,3.511e-09
5.868e-01,5.990e-09
5.892e-01,1.008e-08
5.917e-01,1.673e-08
5.941e-01,2.741e-08
5.965e-01,4.432e-08
5.989e-01,7.076e-08
6.013e-01,1.115e-07
6.037e-01,1.736e-07
6.061e-01,2.670e-07
6.085e-01,4.056e-07
6.109e-01,6.090e-07
6.133e-01,9.037e-07
6.158e-01,1.326e-06
6.182e-01,1.923e-06
6.206e-01,2.760e-06
6.230e-01,3.917e-06
6.254e-01,5.501e-06
6.278e-01,7.644e-06
6.302e-01,1.052e-05
6.326e-01,1.432e-05
6.350e-01,1.932e-05
6.374e-01,2.581e-05
6.398e-01,3.415e-05
6.422e-01,4.479e-05
6.447e-01,5.822e-05
6.471e-01,7.503e-05
6.495e-01,9.587e-05
6.519e-01,1.215e-04
6.543e-01,1.528e-04
6.567e-01,1.906e-04
6.591e-01,2.360e-04
6.615e-01,2.901e-04
6.639e-01,3.541e-04
6.663e-01,4.294e-04
6.687e-01,5.173e-04
6.712e-01,6.194e-04
6.736e-01,7.372e-04
6.760e-01,8.725e-04
6.784e-01,1.027e-03
6.808e-01,1.203e-03
6.832e-01,1.402e-03
6.856e-01,1.627e-03
6.880e-01,1.880e-03
6.904e-01,2.164e-03
6.928e-01,2.481e-03
6.952e-01,2.837e-03
6.977e-01,3.233e-03
7.001e-01,3.676e-03
7.025e-01,4.170e-03
7.049e-01,4.720e-03
7.073e-01,5.334e-03
7.097e-01,6.021e-03
7.121e-01,6.788e-03
7.145e-01,7.647e-03
7.169e-01,8.610e-03
7.193e-01,9.692e-03
7.217e-01,1.091e-02
7.242e-01,1.228e-02
7.266e-01,1.383e-02
7.290e-01,1.559e-02
7.314e-01,1.757e-02
7.338e-01,1.983e-02
7.362e-01,2.240e-02
7.386e-01,2.532e-02
7.410e-01,2.865e-02
7.434e-01,3.245e-02
7.458e-01,3.679e-02
7.482e-01,4.175e-02
7.507e-01,4.742e-02
7.531e-01,5.391e-02
7.555e-01,6.135e-02
7.579e-01,6.988e-02
7.603e-01,7.966e-02
7.627e-01,9.087e-02
7.651e-01,1.037e-01
7.675e-01,1.185e-01
7.699e-01,1.355e-01
7.723e-01,1.549e-01
7.747e-01,1.773e-01
7.772e-01,2.030e-01
7.796e-01,2.324e-01
7.820e-01,2.662e-01
7.844e-01,3.049e-01
7.868e-01,3.492e-01
7.892e-01,3.998e-01
7.916e-01,4.577e-01
7.940e-01,5.237e-01
7.964e-01,5.987e-01
7.988e-01,6.839e-01
8.013e-01,7.804e-01
8.037e-01,8.894e-01
8.061e-01,1.012e+00
8.085e-01,1.150e+00
8.109e-01,1.303e+00
8.133e-01,1.475e+00
8.157e-01,1.665e+00
8.181e-01,1.874e+00
8.205e-01,2.105e+00
8.229e-01,2.356e+00
8.253e-01,2.630e+00
8.277e-01,2.927e+00
8.302e-01,3.245e+00
8.326e-01,3.586e+00
8.350e-01,3.948e+00
8.374e-01,4.331e+00
8.398e-01,4.732e+00
8.422e-01,5.150e+00
8.446e-01,5.581e+00
8.470e-01,6.024e+00
8.494e-01,6.475e+00
8.518e-01,6.929e+00
8.542e-01,7.383e+00
8.567e-01,7.831e+00
8.591e-01,8.270e+00
8.615e-01,8.695e+00
8.639e-01,9.099e+00
8.663e-01,9.479e+00
8.687e-01,9.829e+00
8.711e-01,1.015e+01
8.735e-01,1.042e+01
8.759e-01,1.066e+01
8.783e-01,1.085e+01
8.807e-01,1.099e+01
8.832e-01,1.108e+01
8.856e-01,1.112e+01
8.880e-01,1.111e+01
8.904e-01,1.105e+01
8.928e-01,1.094e+01
8.952e-01,1.077e+01
8.976e-01,1.056e+01
9.000e-01,1.031e+01
9.024e-01,1.002e+01
9.048e-01,9.687e+00
9.073e-01,9.325e+00
9.097e-01,8.935e+00
9.121e-01,8.523e+00
9.145e-01,8.093e+00
9.169e-01,7.650e+00
9.193e-01,7.199e+00
9.217e-01,6.744e+00
9.241e-01,6.290e+00
9.265e-01,5.841e+00
9.289e-01,5.400e+00
9.313e-01,4.970e+00
9.338e-01,4.554e+00
9.362e-01,4.156e+00
9.386e-01,3.776e+00
9.410e-01,3.415e+00
9.434e-01,3.077e+00
9.458e-01,2.760e+00
9.482e-01,2.465e+00
9.506e-01,2.192e+00
9.530e-01,1.942e+00
9.554e-01,1.713e+00
9.578e-01,1.505e+00
9.603e-01,1.316e+00
9.627e-01,1.147e+00
9.651e-01,9.955e-01
9.675e-01,8.605e-01
9.699e-01,7.408e-01
9.723e-01,6.353e-01
9.747e-01,5.426e-01
9.771e-01,4.617e-01
9.795e-01,3.913e-01
9.819e-01,3.304e-01
9.843e-01,2.778e-01
9.868e-01,2.328e-01
9.892e-01,1.943e-01
9.916e-01,1.616e-01
9.940e-01,1.339e-01
9.964e-01,1.105e-01
9.988e-01,9.086e-02
