transmittance,probability_density
5.483e-01,1.341e-19
5.506e-01,3.918e-19
5.528e-01,1.121e-18
5.551e-01,3.145e-18
5.574e-01,8.644e-18
5.596e-01,2.329e-17
5.619e-01,6.152e-17
5.642e-01,1.594e-16
5.664e-01,4.050e-16
5.687e-01,1.010e-15
5.710e-01,2.471e-15
5.732e-01,5.934e-15
5.755e-01,1.399e-14
5.777e-01,3.240e-14
5.800e-01,7.368e-14
5.823e-01,1.646e-13
5.845e-01,3.614e-13
5.868e-01,7.797e-13
5.891e-01,1.654e-12
5.913e-01,3.448e-12
5.936e-01,7.071e-12
5.959e-01,1.426e-11
5.981e-01,2.830e-11
6.004e-01,5.524e-11
6.027e-01,1.061e-10
6.049e-01,2.007e-10
6.072e-01,3.737e-10
6.094e-01,6.851e-10
6.117e-01,1.237e-09
6.140e-01,2.200e-09
6.162e-01,3.856e-09
6.185e-01,6.658e-09
6.208e-01,1.133e-08
6.230e-01,1.901e-08
6.253e-01,3.144e-08
6.276e-01,5.128e-08
6.298e-01,8.250e-08
6.321e-01,1.309e-07
6.343e-01,2.050e-07
6.366e-01,3.168e-07
6.389e-01,4.831e-07
6.411e-01,7.274e-07
6.434e-01,1.081e-06
6.457e-01,1.588e-06
6.479e-01,2.302e-06
6.502e-01,3.298e-06
6.525e-01,4.670e-06
6.547e-01,6.534e-06
6.570e-01,9.039e-06
6.593e-01,1.236e-05
6.615e-01,1.672e-05
6.638e-01,2.237e-05
6.660e-01,2.962e-05
6.683e-01,3.881e-05
6.706e-01,5.034e-05
6.728e-01,6.465e-05
6.751e-01,8.223e-05
6.774e-01,1.036e-04
6.796e-01,1.294e-04
6.819e-01,1.602e-04
6.842e-01,1.966e-04
6.864e-01,2.394e-04
6.887e-01,2.892e-04
6.910e-01,3.468e-04
6.932e-01,4.129e-04
6.955e-01,4.884e-04
6.977e-01,5.739e-04
7.000e-01,6.705e-04
7.023e-01,7.789e-04
7.045e-01,9.003e-04
7.068e-01,1.036e-03
7.091e-01,1.186e-03
7.113e-01,1.354e-03
7.136e-01,1.539e-03
7.159e-01,1.745e-03
7.181e-01,1.973e-03
7.204e-01,2.225e-03
7.226e-01,2.505e-03
7.249e-01,2.817e-03
7.272e-01,3.163e-03
7.294e-01,3.549e-03
7.317e-01,3.980e-03
7.340e-01,4.461e-03
7.362e-01,5.001e-03
7.385e-01,5.606e-03
7.408e-01,6.287e-03
7.430e-01,7.053e-03
7.453e-01,7.918e-03
7.476e-01,8.894e-03
7.498e-01,9.998e-03
7.521e-01,1.125e-02
7.543e-01,1.266e-02
7.566e-01,1.427e-02
7.589e-01,1.610e-02
7.611e-01,1.817e-02
7.634e-01,2.053e-02
7.657e-01,2.322e-02
7.679e-01,2.629e-02
7.702e-01,2.978e-02
7.725e-01,3.377e-02
7.747e-01,3.833e-02
7.770e-01,4.355e-02
7.793e-01,4.951e-02
7.815e-01,5.635e-02
7.838e-01,6.419e-02
7.860e-01,7.319e-02
7.883e-01,8.353e-02
7.906e-01,9.541e-02
7.928e-01,1.091e-01
7.951e-01,1.248e-01
7.974e-01,1.430e-01
7.996e-01,1.639e-01
8.019e-01,1.880e-01
8.042e-01,2.159e-01
8.064e-01,2.480e-01
8.087e-01,2.850e-01
8.109e-01,3.277e-01
8.132e-01,3.770e-01
8.155e-01,4.337e-01
8.177e-01,4.988e-01
8.200e-01,5.736e-01
8.223e-01,6.594e-01
8.245e-01,7.574e-01
8.268e-01,8.692e-01
8.291e-01,9.962e-01
8.313e-01,1.140e+00
8.336e-01,1.303e+00
8.359e-01,1.486e+00
8.381e-01,1.691e+00
8.404e-01,1.919e+00
8.426e-01,2.172e+00
8.449e-01,2.452e+00
8.472e-01,2.759e+00
8.494e-01,3.093e+00
8.517e-01,3.456e+00
8.540e-01,3.848e+00
8.562e-01,4.267e+00
8.585e-01,4.712e+00
8.608e-01,5.182e+00
8.630e-01,5.674e+00
8.653e-01,6.185e+00
8.676e-01,6.711e+00
8.698e-01,7.248e+00
8.721e-01,7.790e+00
8.743e-01,8.333e+00
8.766e-01,8.870e+00
8.789e-01,9.394e+00
8.811e-01,9.899e+00
8.834e-01,1.038e+01
8.857e-01,1.083e+01
8.879e-01,1.123e+01
8.902e-01,1.160e+01
8.925e-01,1.191e+01
8.947e-01,1.217e+01
8.970e-01,1.236e+01
8.992e-01,1.250e+01
9.015e-01,1.257e+01
9.038e-01,1.257e+01
9.060e-01,1.251e+01
9.083e-01,1.238e+01
9.106e-01,1.219e+01
9.128e-01,1.194e+01
9.151e-01,1.163e+01
9.174e-01,1.127e+01
9.196e-01,1.087e+01
9.219e-01,1.042e+01
9.242e-01,9.945e+00
9.264e-01,9.439e+00
9.287e-01,8.913e+00
9.309e-01,8.372e+00
9.332e-01,7.825e+00
9.355e-01,7.275e+00
9.377e-01,6.730e+00
9.400e-01,6.194e+00
9.423e-01,5.672e+00
9.445e-01,5.168e+00
9.468e-01,4.686e+00
9.491e-01,4.227e+00
9.513e-01,3.794e+00
9.536e-01,3.389e+00
9.559e-01,3.013e+00
9.581e-01,2.665e+00
9.604e-01,2.346e+00
9.626e-01,2.055e+00
9.649e-01,1.791e+00
9.672e-01,1.554e+00
9.694e-01,1.342e+00
9.717e-01,1.154e+00
9.740e-01,9.869e-01
9.762e-01,8.404e-01
9.785e-01,7.123e-01
9.808e-01,6.009e-01
9.830e-01,5.046e-01
9.853e-01,4.219e-01
9.875e-01,3.511e-01
9.898e-01,2.909e-01
9.921e-01,2.399e-01
9.943e-01,1.970e-01
9.966e-01,1.610e-01
9.989e-01,1.311e-01
