transmittance,probability_density
4.078e-01,5.535e-09
4.108e-01,9.445e-09
4.138e-01,1.585e-08
4.168e-01,2.618e-08
4.197e-01,4.255e-08
4.227e-01,6.810e-08
4.257e-01,1.074e-07
4.286e-01,1.668e-07
4.316e-01,2.553e-07
4.346e-01,3.854e-07
4.375e-01,5.739e-07
4.405e-01,8.433e-07
4.435e-01,1.223e-06
4.464e-01,1.751e-06
4.494e-01,2.477e-06
4.524e-01,3.462e-06
4.553e-01,4.782e-06
4.583e-01,6.531e-06
4.613e-01,8.824e-06
4.642e-01,1.180e-05
4.672e-01,1.561e-05
4.702e-01,2.045e-05
4.731e-01,2.655e-05
4.761e-01,3.415e-05
4.791e-01,4.354e-05
4.821e-01,5.507e-05
4.850e-01,6.909e-05
4.880e-01,8.602e-05
4.910e-01,1.064e-04
4.939e-01,1.306e-04
4.969e-01,1.593e-04
4.999e-01,1.932e-04
5.028e-01,2.330e-04
5.058e-01,2.795e-04
5.088e-01,3.336e-04
5.117e-01,3.962e-04
5.147e-01,4.686e-04
5.177e-01,5.519e-04
5.206e-01,6.475e-04
5.236e-01,7.568e-04
5.266e-01,8.816e-04
5.295e-01,1.024e-03
5.325e-01,1.185e-03
5.355e-01,1.368e-03
5.384e-01,1.575e-03
5.414e-01,1.808e-03
5.444e-01,2.072e-03
5.474e-01,2.368e-03
5.503e-01,2.702e-03
5.533e-01,3.077e-03
5.563e-01,3.499e-03
5.592e-01,3.973e-03
5.622e-01,4.506e-03
5.652e-01,5.104e-03
5.681e-01,5.778e-03
5.711e-01,6.536e-03
5.741e-01,7.392e-03
5.770e-01,8.357e-03
5.800e-01,9.448e-03
5.830e-01,1.068e-02
5.859e-01,1.208e-02
5.889e-01,1.368e-02
5.919e-01,1.548e-02
5.948e-01,1.754e-02
5.978e-01,1.989e-02
6.008e-01,2.257e-02
6.037e-01,2.563e-02
6.067e-01,2.912e-02
6.097e-01,3.312e-02
6.127e-01,3.769e-02
6.156e-01,4.291e-02
6.186e-01,4.889e-02
6.216e-01,5.572e-02
6.245e-01,6.353e-02
6.275e-01,7.246e-02
6.305e-01,8.265e-02
6.334e-01,9.428e-02
6.364e-01,1.075e-01
6.394e-01,1.226e-01
6.423e-01,1.398e-01
6.453e-01,1.593e-01
6.483e-01,1.814e-01
6.512e-01,2.064e-01
6.542e-01,2.347e-01
6.572e-01,2.667e-01
6.601e-01,3.027e-01
6.631e-01,3.431e-01
6.661e-01,3.884e-01
6.690e-01,4.390e-01
6.720e-01,4.956e-01
6.750e-01,5.584e-01
6.780e-01,6.282e-01
6.809e-01,7.053e-01
6.839e-01,7.903e-01
6.869e-01,8.837e-01
6.898e-01,9.860e-01
6.928e-01,1.098e+00
6.958e-01,1.219e+00
6.987e-01,1.350e+00
7.017e-01,1.492e+00
7.047e-01,1.645e+00
7.076e-01,1.808e+00
7.106e-01,1.981e+00
7.136e-01,2.166e+00
7.165e-01,2.360e+00
7.195e-01,2.565e+00
7.225e-01,2.779e+00
7.254e-01,3.002e+00
7.284e-01,3.233e+00
7.314e-01,3.471e+00
7.343e-01,3.715e+00
7.373e-01,3.963e+00
7.403e-01,4.215e+00
7.433e-01,4.469e+00
7.462e-01,4.722e+00
7.492e-01,4.974e+00
7.522e-01,5.223e+00
7.551e-01,5.467e+00
7.581e-01,5.703e+00
7.611e-01,5.930e+00
7.640e-01,6.147e+00
7.670e-01,6.351e+00
7.700e-01,6.540e+00
7.729e-01,6.714e+00
7.759e-01,6.870e+00
7.789e-01,7.007e+00
7.818e-01,7.125e+00
7.848e-01,7.221e+00
7.878e-01,7.295e+00
7.907e-01,7.347e+00
7.937e-01,7.376e+00
7.967e-01,7.383e+00
7.996e-01,7.366e+00
8.026e-01,7.327e+00
8.056e-01,7.266e+00
8.086e-01,7.183e+00
8.115e-01,7.079e+00
8.145e-01,6.957e+00
8.175e-01,6.816e+00
8.204e-01,6.658e+00
8.234e-01,6.484e+00
8.264e-01,6.297e+00
8.293e-01,6.097e+00
8.323e-01,5.887e+00
8.353e-01,5.667e+00
8.382e-01,5.440e+00
8.412e-01,5.208e+00
8.442e-01,4.972e+00
8.471e-01,4.733e+00
8.501e-01,4.493e+00
8.531e-01,4.254e+00
8.560e-01,4.017e+00
8.590e-01,3.783e+00
8.620e-01,3.553e+00
8.649e-01,3.328e+00
8.679e-01,3.109e+00
8.709e-01,2.897e+00
8.739e-01,2.693e+00
8.768e-01,2.496e+00
8.798e-01,2.308e+00
8.828e-01,2.129e+00
8.857e-01,1.959e+00
8.887e-01,1.798e+00
8.917e-01,1.647e+00
8.946e-01,1.504e+00
8.976e-01,1.370e+00
9.006e-01,1.246e+00
9.035e-01,1.130e+00
9.065e-01,1.022e+00
9.095e-01,9.229e-01
9.124e-01,8.312e-01
9.154e-01,7.469e-01
9.184e-01,6.697e-01
9.213e-01,5.991e-01
9.243e-01,5.347e-01
9.273e-01,4.763e-01
9.302e-01,4.233e-01
9.332e-01,3.754e-01
9.362e-01,3.322e-01
9.392e-01,2.933e-01
9.421e-01,2.585e-01
9.451e-01,2.273e-01
9.481e-01,1.995e-01
9.510e-01,1.747e-01
9.540e-01,1.527e-01
9.570e-01,1.332e-01
9.599e-01,1.160e-01
9.629e-01,1.008e-01
9.659e-01,8.737e-02
9.688e-01,7.562e-02
9.718e-01,6.532e-02
9.748e-01,5.632e-02
9.777e-01,4.847e-02
9.807e-01,4.164e-02
9.837e-01,3.570e-02
9.866e-01,3.055e-02
9.896e-01,2.610e-02
9.926e-01,2.226e-02
9.955e-01,1.895e-02
9.985e-01,1.610e-02
