transmittance,probability_density
3.226e-01,2.031e-10
3.260e-01,4.034e-10
3.294e-01,7.831e-10
3.328e-01,1.486e-09
3.362e-01,2.760e-09
3.396e-01,5.019e-09
3.430e-01,8.942e-09
3.464e-01,1.562e-08
3.498e-01,2.678e-08
3.532e-01,4.506e-08
3.566e-01,7.450e-08
3.600e-01,1.211e-07
3.634e-01,1.936e-07
3.667e-01,3.045e-07
3.701e-01,4.718e-07
3.735e-01,7.203e-07
3.769e-01,1.084e-06
3.803e-01,1.609e-06
3.837e-01,2.358e-06
3.871e-01,3.411e-06
3.905e-01,4.874e-06
3.939e-01,6.884e-06
3.973e-01,9.613e-06
4.007e-01,1.328e-05
4.041e-01,1.815e-05
4.075e-01,2.457e-05
4.109e-01,3.294e-05
4.143e-01,4.376e-05
4.177e-01,5.761e-05
4.211e-01,7.521e-05
4.245e-01,9.740e-05
4.279e-01,1.252e-04
4.313e-01,1.597e-04
4.347e-01,2.022e-04
4.381e-01,2.544e-04
4.414e-01,3.181e-04
4.448e-01,3.952e-04
4.482e-01,4.883e-04
4.516e-01,6.001e-04
4.550e-01,7.337e-04
4.584e-01,8.929e-04
4.618e-01,1.082e-03
4.652e-01,1.305e-03
4.686e-01,1.569e-03
4.720e-01,1.880e-03
4.754e-01,2.245e-03
4.788e-01,2.674e-03
4.822e-01,3.176e-03
4.856e-01,3.764e-03
4.890e-01,4.452e-03
4.924e-01,5.257e-03
4.958e-01,6.196e-03
4.992e-01,7.294e-03
5.026e-01,8.576e-03
5.060e-01,1.007e-02
5.094e-01,1.182e-02
5.128e-01,1.385e-02
5.161e-01,1.622e-02
5.195e-01,1.898e-02
5.229e-01,2.220e-02
5.263e-01,2.594e-02
5.297e-01,3.029e-02
5.331e-01,3.533e-02
5.365e-01,4.119e-02
5.399e-01,4.797e-02
5.433e-01,5.581e-02
5.467e-01,6.487e-02
5.501e-01,7.532e-02
5.535e-01,8.735e-02
5.569e-01,1.012e-01
5.603e-01,1.170e-01
5.637e-01,1.352e-01
5.671e-01,1.559e-01
5.705e-01,1.796e-01
5.739e-01,2.064e-01
5.773e-01,2.368e-01
5.807e-01,2.713e-01
5.841e-01,3.100e-01
5.875e-01,3.536e-01
5.908e-01,4.025e-01
5.942e-01,4.570e-01
5.976e-01,5.177e-01
6.010e-01,5.850e-01
6.044e-01,6.595e-01
6.078e-01,7.414e-01
6.112e-01,8.312e-01
6.146e-01,9.294e-01
6.180e-01,1.036e+00
6.214e-01,1.152e+00
6.248e-01,1.277e+00
6.282e-01,1.411e+00
6.316e-01,1.554e+00
6.350e-01,1.707e+00
6.384e-01,1.869e+00
6.418e-01,2.040e+00
6.452e-01,2.219e+00
6.486e-01,2.406e+00
6.520e-01,2.601e+00
6.554e-01,2.802e+00
6.588e-01,3.009e+00
6.622e-01,3.220e+00
6.655e-01,3.435e+00
6.689e-01,3.652e+00
6.723e-01,3.871e+00
6.757e-01,4.088e+00
6.791e-01,4.304e+00
6.825e-01,4.517e+00
6.859e-01,4.724e+00
6.893e-01,4.925e+00
6.927e-01,5.117e+00
6.961e-01,5.300e+00
6.995e-01,5.472e+00
7.029e-01,5.631e+00
7.063e-01,5.777e+00
7.097e-01,5.908e+00
7.131e-01,6.022e+00
7.165e-01,6.120e+00
7.199e-01,6.200e+00
7.233e-01,6.262e+00
7.267e-01,6.305e+00
7.301e-01,6.329e+00
7.335e-01,6.334e+00
7.369e-01,6.321e+00
7.402e-01,6.288e+00
7.436e-01,6.238e+00
7.470e-01,6.170e+00
7.504e-01,6.086e+00
7.538e-01,5.985e+00
7.572e-01,5.870e+00
7.606e-01,5.741e+00
7.640e-01,5.599e+00
7.674e-01,5.446e+00
7.708e-01,5.283e+00
7.742e-01,5.111e+00
7.776e-01,4.931e+00
7.810e-01,4.745e+00
7.844e-01,4.555e+00
7.878e-01,4.360e+00
7.912e-01,4.164e+00
7.946e-01,3.966e+00
7.980e-01,3.769e+00
8.014e-01,3.572e+00
8.048e-01,3.377e+00
8.082e-01,3.186e+00
8.116e-01,2.998e+00
8.149e-01,2.814e+00
8.183e-01,2.636e+00
8.217e-01,2.463e+00
8.251e-01,2.296e+00
8.285e-01,2.136e+00
8.319e-01,1.983e+00
8.353e-01,1.836e+00
8.387e-01,1.697e+00
8.421e-01,1.565e+00
8.455e-01,1.440e+00
8.489e-01,1.322e+00
8.523e-01,1.211e+00
8.557e-01,1.108e+00
8.591e-01,1.011e+00
8.625e-01,9.204e-01
8.659e-01,8.366e-01
8.693e-01,7.588e-01
8.727e-01,6.870e-01
8.761e-01,6.208e-01
8.795e-01,5.599e-01
8.829e-01,5.040e-01
8.863e-01,4.528e-01
8.896e-01,4.061e-01
8.930e-01,3.635e-01
8.964e-01,3.249e-01
8.998e-01,2.898e-01
9.032e-01,2.580e-01
9.066e-01,2.294e-01
9.100e-01,2.035e-01
9.134e-01,1.803e-01
9.168e-01,1.595e-01
9.202e-01,1.408e-01
9.236e-01,1.241e-01
9.270e-01,1.092e-01
9.304e-01,9.595e-02
9.338e-01,8.417e-02
9.372e-01,7.372e-02
9.406e-01,6.447e-02
9.440e-01,5.629e-02
9.474e-01,4.907e-02
9.508e-01,4.272e-02
9.542e-01,3.713e-02
9.576e-01,3.223e-02
9.610e-01,2.793e-02
9.643e-01,2.417e-02
9.677e-01,2.089e-02
9.711e-01,1.803e-02
9.745e-01,1.554e-02
9.779e-01,1.337e-02
9.813e-01,1.149e-02
9.847e-01,9.863e-03
9.881e-01,8.454e-03
9.915e-01,7.237e-03
9.949e-01,6.187e-03
9.983e-01,5.283e-03
