transmittance,probability_density
4.909e-01,2.595e-13
4.935e-01,5.602e-13
4.960e-01,1.187e-12
4.986e-01,2.468e-12
5.011e-01,5.038e-12
5.037e-01,1.010e-11
5.062e-01,1.990e-11
5.088e-01,3.853e-11
5.113e-01,7.330e-11
5.139e-01,1.371e-10
5.164e-01,2.522e-10
5.190e-01,4.563e-10
5.215e-01,8.122e-10
5.241e-01,1.423e-09
5.266e-01,2.453e-09
5.292e-01,4.163e-09
5.317e-01,6.959e-09
5.343e-01,1.146e-08
5.368e-01,1.858e-08
5.394e-01,2.969e-08
5.419e-01,4.676e-08
5.445e-01,7.261e-08
5.471e-01,1.112e-07
5.496e-01,1.678e-07
5.522e-01,2.500e-07
5.547e-01,3.673e-07
5.573e-01,5.326e-07
5.598e-01,7.623e-07
5.624e-01,1.077e-06
5.649e-01,1.503e-06
5.675e-01,2.072e-06
5.700e-01,2.822e-06
5.726e-01,3.797e-06
5.751e-01,5.051e-06
5.777e-01,6.642e-06
5.802e-01,8.640e-06
5.828e-01,1.112e-05
5.853e-01,1.415e-05
5.879e-01,1.784e-05
5.904e-01,2.227e-05
5.930e-01,2.753e-05
5.955e-01,3.373e-05
5.981e-01,4.098e-05
6.006e-01,4.937e-05
6.032e-01,5.902e-05
6.057e-01,7.006e-05
6.083e-01,8.260e-05
6.108e-01,9.680e-05
6.134e-01,1.128e-04
6.160e-01,1.308e-04
6.185e-01,1.511e-04
6.211e-01,1.739e-04
6.236e-01,1.996e-04
6.262e-01,2.285e-04
6.287e-01,2.613e-04
6.313e-01,2.985e-04
6.338e-01,3.408e-04
6.364e-01,3.892e-04
6.389e-01,4.448e-04
6.415e-01,5.089e-04
6.440e-01,5.829e-04
6.466e-01,6.687e-04
6.491e-01,7.685e-04
6.517e-01,8.846e-04
6.542e-01,1.020e-03
6.568e-01,1.178e-03
6.593e-01,1.363e-03
6.619e-01,1.578e-03
6.644e-01,1.830e-03
6.670e-01,2.124e-03
6.695e-01,2.466e-03
6.721e-01,2.865e-03
6.746e-01,3.330e-03
6.772e-01,3.869e-03
6.797e-01,4.496e-03
6.823e-01,5.223e-03
6.849e-01,6.064e-03
6.874e-01,7.037e-03
6.900e-01,8.159e-03
6.925e-01,9.454e-03
6.951e-01,1.094e-02
6.976e-01,1.266e-02
7.002e-01,1.463e-02
7.027e-01,1.689e-02
7.053e-01,1.948e-02
7.078e-01,2.245e-02
7.104e-01,2.585e-02
7.129e-01,2.974e-02
7.155e-01,3.419e-02
7.180e-01,3.928e-02
7.206e-01,4.509e-02
7.231e-01,5.173e-02
7.257e-01,5.931e-02
7.282e-01,6.797e-02
7.308e-01,7.786e-02
7.333e-01,8.916e-02
7.359e-01,1.021e-01
7.384e-01,1.168e-01
7.410e-01,1.336e-01
7.435e-01,1.528e-01
7.461e-01,1.748e-01
7.486e-01,1.998e-01
7.512e-01,2.283e-01
7.537e-01,2.608e-01
7.563e-01,2.979e-01
7.589e-01,3.400e-01
7.614e-01,3.878e-01
7.640e-01,4.420e-01
7.665e-01,5.035e-01
7.691e-01,5.729e-01
7.716e-01,6.511e-01
7.742e-01,7.390e-01
7.767e-01,8.377e-01
7.793e-01,9.480e-01
7.818e-01,1.071e+00
7.844e-01,1.207e+00
7.869e-01,1.358e+00
7.895e-01,1.525e+00
7.920e-01,1.707e+00
7.946e-01,1.907e+00
7.971e-01,2.124e+00
7.997e-01,2.359e+00
8.022e-01,2.612e+00
8.048e-01,2.883e+00
8.073e-01,3.171e+00
8.099e-01,3.477e+00
8.124e-01,3.800e+00
8.150e-01,4.137e+00
8.175e-01,4.489e+00
8.201e-01,4.852e+00
8.226e-01,5.224e+00
8.252e-01,5.604e+00
8.278e-01,5.987e+00
8.303e-01,6.372e+00
8.329e-01,6.755e+00
8.354e-01,7.131e+00
8.380e-01,7.498e+00
8.405e-01,7.852e+00
8.431e-01,8.189e+00
8.456e-01,8.505e+00
8.482e-01,8.797e+00
8.507e-01,9.061e+00
8.533e-01,9.294e+00
8.558e-01,9.493e+00
8.584e-01,9.656e+00
8.609e-01,9.781e+00
8.635e-01,9.867e+00
8.660e-01,9.912e+00
8.686e-01,9.915e+00
8.711e-01,9.878e+00
8.737e-01,9.799e+00
8.762e-01,9.682e+00
8.788e-01,9.526e+00
8.813e-01,9.334e+00
8.839e-01,9.109e+00
8.864e-01,8.853e+00
8.890e-01,8.569e+00
8.915e-01,8.261e+00
8.941e-01,7.932e+00
8.967e-01,7.586e+00
8.992e-01,7.226e+00
9.018e-01,6.856e+00
9.043e-01,6.479e+00
9.069e-01,6.099e+00
9.094e-01,5.718e+00
9.120e-01,5.341e+00
9.145e-01,4.969e+00
9.171e-01,4.606e+00
9.196e-01,4.253e+00
9.222e-01,3.912e+00
9.247e-01,3.585e+00
9.273e-01,3.273e+00
9.298e-01,2.977e+00
9.324e-01,2.698e+00
9.349e-01,2.436e+00
9.375e-01,2.191e+00
9.400e-01,1.964e+00
9.426e-01,1.754e+00
9.451e-01,1.561e+00
9.477e-01,1.384e+00
9.502e-01,1.223e+00
9.528e-01,1.077e+00
9.553e-01,9.453e-01
9.579e-01,8.266e-01
9.604e-01,7.204e-01
9.630e-01,6.257e-01
9.656e-01,5.416e-01
9.681e-01,4.673e-01
9.707e-01,4.018e-01
9.732e-01,3.443e-01
9.758e-01,2.941e-01
9.783e-01,2.504e-01
9.809e-01,2.125e-01
9.834e-01,1.798e-01
9.860e-01,1.516e-01
9.885e-01,1.274e-01
9.911e-01,1.068e-01
9.936e-01,8.920e-02
9.962e-01,7.428e-02
9.987e-01,6.167e-02
