transmittance,probability_density
3.647e-01,6.396e-07
3.679e-01,9.523e-07
3.711e-01,1.392e-06
3.742e-01,2.001e-06
3.774e-01,2.825e-06
3.806e-01,3.925e-06
3.838e-01,5.365e-06
3.870e-01,7.219e-06
3.902e-01,9.570e-06
3.933e-01,1.250e-05
3.965e-01,1.610e-05
3.997e-01,2.046e-05
4.029e-01,2.565e-05
4.061e-01,3.177e-05
4.093e-01,3.887e-05
4.125e-01,4.703e-05
4.156e-01,5.628e-05
4.188e-01,6.666e-05
4.220e-01,7.822e-05
4.252e-01,9.096e-05
4.284e-01,1.049e-04
4.316e-01,1.202e-04
4.347e-01,1.367e-04
4.379e-01,1.546e-04
4.411e-01,1.741e-04
4.443e-01,1.952e-04
4.475e-01,2.183e-04
4.507e-01,2.436e-04
4.539e-01,2.715e-04
4.570e-01,3.024e-04
4.602e-01,3.371e-04
4.634e-01,3.761e-04
4.666e-01,4.204e-04
4.698e-01,4.708e-04
4.730e-01,5.287e-04
4.761e-01,5.952e-04
4.793e-01,6.718e-04
4.825e-01,7.604e-04
4.857e-01,8.627e-04
4.889e-01,9.810e-04
4.921e-01,1.118e-03
4.952e-01,1.276e-03
4.984e-01,1.458e-03
5.016e-01,1.668e-03
5.048e-01,1.911e-03
5.080e-01,2.190e-03
5.112e-01,2.511e-03
5.144e-01,2.881e-03
5.175e-01,3.305e-03
5.207e-01,3.793e-03
5.239e-01,4.354e-03
5.271e-01,4.998e-03
5.303e-01,5.737e-03
5.335e-01,6.587e-03
5.366e-01,7.563e-03
5.398e-01,8.685e-03
5.430e-01,9.974e-03
5.462e-01,1.146e-02
5.494e-01,1.316e-02
5.526e-01,1.512e-02
5.558e-01,1.738e-02
5.589e-01,1.998e-02
5.621e-01,2.296e-02
5.653e-01,2.640e-02
5.685e-01,3.035e-02
5.717e-01,3.490e-02
5.749e-01,4.012e-02
5.780e-01,4.612e-02
5.812e-01,5.302e-02
5.844e-01,6.093e-02
5.876e-01,7.000e-02
5.908e-01,8.039e-02
5.940e-01,9.227e-02
5.972e-01,1.059e-01
6.003e-01,1.214e-01
6.035e-01,1.390e-01
6.067e-01,1.591e-01
6.099e-01,1.819e-01
6.131e-01,2.078e-01
6.163e-01,2.371e-01
6.194e-01,2.701e-01
6.226e-01,3.073e-01
6.258e-01,3.490e-01
6.290e-01,3.958e-01
6.322e-01,4.480e-01
6.354e-01,5.062e-01
6.386e-01,5.707e-01
6.417e-01,6.422e-01
6.449e-01,7.211e-01
6.481e-01,8.077e-01
6.513e-01,9.027e-01
6.545e-01,1.006e+00
6.577e-01,1.119e+00
6.608e-01,1.241e+00
6.640e-01,1.372e+00
6.672e-01,1.514e+00
6.704e-01,1.665e+00
6.736e-01,1.826e+00
6.768e-01,1.997e+00
6.800e-01,2.177e+00
6.831e-01,2.366e+00
6.863e-01,2.564e+00
6.895e-01,2.769e+00
6.927e-01,2.982e+00
6.959e-01,3.202e+00
6.991e-01,3.426e+00
7.022e-01,3.655e+00
7.054e-01,3.886e+00
7.086e-01,4.119e+00
7.118e-01,4.351e+00
7.150e-01,4.582e+00
7.182e-01,4.810e+00
7.214e-01,5.033e+00
7.245e-01,5.249e+00
7.277e-01,5.457e+00
7.309e-01,5.655e+00
7.341e-01,5.841e+00
7.373e-01,6.015e+00
7.405e-01,6.174e+00
7.436e-01,6.317e+00
7.468e-01,6.443e+00
7.500e-01,6.550e+00
7.532e-01,6.639e+00
7.564e-01,6.709e+00
7.596e-01,6.758e+00
7.628e-01,6.787e+00
7.659e-01,6.795e+00
7.691e-01,6.783e+00
7.723e-01,6.750e+00
7.755e-01,6.698e+00
7.787e-01,6.626e+00
7.819e-01,6.536e+00
7.850e-01,6.428e+00
7.882e-01,6.304e+00
7.914e-01,6.165e+00
7.946e-01,6.011e+00
7.978e-01,5.845e+00
8.010e-01,5.668e+00
8.042e-01,5.481e+00
8.073e-01,5.285e+00
8.105e-01,5.083e+00
8.137e-01,4.875e+00
8.169e-01,4.663e+00
8.201e-01,4.449e+00
8.233e-01,4.233e+00
8.264e-01,4.018e+00
8.296e-01,3.803e+00
8.328e-01,3.591e+00
8.360e-01,3.382e+00
8.392e-01,3.177e+00
8.424e-01,2.978e+00
8.455e-01,2.784e+00
8.487e-01,2.596e+00
8.519e-01,2.415e+00
8.551e-01,2.242e+00
8.583e-01,2.076e+00
8.615e-01,1.918e+00
8.647e-01,1.767e+00
8.678e-01,1.625e+00
8.710e-01,1.491e+00
8.742e-01,1.365e+00
8.774e-01,1.247e+00
8.806e-01,1.136e+00
8.838e-01,1.033e+00
8.869e-01,9.375e-01
8.901e-01,8.489e-01
8.933e-01,7.670e-01
8.965e-01,6.916e-01
8.997e-01,6.224e-01
9.029e-01,5.589e-01
9.061e-01,5.008e-01
9.092e-01,4.479e-01
9.124e-01,3.998e-01
9.156e-01,3.562e-01
9.188e-01,3.167e-01
9.220e-01,2.810e-01
9.252e-01,2.489e-01
9.283e-01,2.200e-01
9.315e-01,1.941e-01
9.347e-01,1.710e-01
9.379e-01,1.503e-01
9.411e-01,1.319e-01
9.443e-01,1.155e-01
9.475e-01,1.010e-01
9.506e-01,8.819e-02
9.538e-01,7.684e-02
9.570e-01,6.684e-02
9.602e-01,5.804e-02
9.634e-01,5.032e-02
9.666e-01,4.355e-02
9.697e-01,3.762e-02
9.729e-01,3.246e-02
9.761e-01,2.795e-02
9.793e-01,2.403e-02
9.825e-01,2.063e-02
9.857e-01,1.768e-02
9.889e-01,1.513e-02
9.920e-01,1.293e-02
9.952e-01,1.103e-02
9.984e-01,9.397e-03
