transmittance,probability_density
5.970e-04,1.031e+02
1.791e-03,1.356e+02
2.985e-03,1.112e+02
4.179e-03,8.670e+01
5.373e-03,6.768e+01
6.567e-03,5.343e+01
7.761e-03,4.276e+01
8.955e-03,3.466e+01
1.015e-02,2.843e+01
1.134e-02,2.357e+01
1.254e-02,1.973e+01
1.373e-02,1.666e+01
1.493e-02,1.418e+01
1.612e-02,1.215e+01
1.731e-02,1.048e+01
1.851e-02,9.092e+00
1.970e-02,7.931e+00
2.090e-02,6.951e+00
2.209e-02,6.121e+00
2.328e-02,5.412e+00
2.448e-02,4.805e+00
2.567e-02,4.281e+00
2.687e-02,3.827e+00
2.806e-02,3.432e+00
2.925e-02,3.087e+00
3.045e-02,2.784e+00
3.164e-02,2.518e+00
3.284e-02,2.283e+00
3.403e-02,2.075e+00
3.522e-02,1.890e+00
3.642e-02,1.725e+00
3.761e-02,1.578e+00
3.881e-02,1.446e+00
4.000e-02,1.327e+00
4.119e-02,1.220e+00
4.239e-02,1.124e+00
4.358e-02,1.037e+00
4.478e-02,9.584e-01
4.597e-02,8.869e-01
4.716e-02,8.218e-01
4.836e-02,7.626e-01
4.955e-02,7.085e-01
5.075e-02,6.591e-01
5.194e-02,6.139e-01
5.314e-02,5.724e-01
5.433e-02,5.343e-01
5.552e-02,4.993e-01
5.672e-02,4.671e-01
5.791e-02,4.374e-01
5.911e-02,4.100e-01
6.030e-02,3.846e-01
6.149e-02,3.612e-01
6.269e-02,3.395e-01
6.388e-02,3.193e-01
6.508e-02,3.006e-01
6.627e-02,2.833e-01
6.746e-02,2.671e-01
6.866e-02,2.520e-01
6.985e-02,2.380e-01
7.105e-02,2.249e-01
7.224e-02,2.127e-01
7.343e-02,2.013e-01
7.463e-02,1.906e-01
7.582e-02,1.806e-01
7.702e-02,1.712e-01
7.821e-02,1.624e-01
7.940e-02,1.542e-01
8.060e-02,1.465e-01
8.179e-02,1.392e-01
8.299e-02,1.323e-01
8.418e-02,1.259e-01
8.537e-02,1.199e-01
8.657e-02,1.141e-01
8.776e-02,1.088e-01
8.896e-02,1.037e-01
9.015e-02,9.889e-02
9.134e-02,9.436e-02
9.254e-02,9.008e-02
9.373e-02,8.604e-02
9.493e-02,8.221e-02
9.612e-02,7.858e-02
9.732e-02,7.515e-02
9.851e-02,7.190e-02
9.970e-02,6.881e-02
1.009e-01,6.588e-02
1.021e-01,6.311e-02
1.033e-01,6.047e-02
1.045e-01,5.796e-02
1.057e-01,5.558e-02
1.069e-01,5.332e-02
1.081e-01,5.116e-02
1.093e-01,4.911e-02
1.104e-01,4.716e-02
1.116e-01,4.530e-02
1.128e-01,4.353e-02
1.140e-01,4.184e-02
1.152e-01,4.023e-02
1.164e-01,3.869e-02
1.176e-01,3.722e-02
1.188e-01,3.582e-02
1.200e-01,3.448e-02
1.212e-01,3.320e-02
1.224e-01,3.198e-02
1.236e-01,3.081e-02
1.248e-01,2.970e-02
1.260e-01,2.863e-02
1.272e-01,2.760e-02
1.284e-01,2.662e-02
1.296e-01,2.569e-02
1.307e-01,2.479e-02
1.319e-01,2.393e-02
1.331e-01,2.310e-02
1.343e-01,2.231e-02
1.355e-01,2.155e-02
1.367e-01,2.082e-02
1.379e-01,2.012e-02
1.391e-01,1.945e-02
1.403e-01,1.880e-02
1.415e-01,1.818e-02
1.427e-01,1.759e-02
1.439e-01,1.702e-02
1.451e-01,1.647e-02
1.463e-01,1.594e-02
1.475e-01,1.543e-02
1.487e-01,1.494e-02
1.499e-01,1.447e-02
1.510e-01,1.401e-02
1.522e-01,1.358e-02
1.534e-01,1.316e-02
1.546e-01,1.275e-02
1.558e-01,1.236e-02
1.570e-01,1.199e-02
1.582e-01,1.162e-02
1.594e-01,1.127e-02
1.606e-01,1.094e-02
1.618e-01,1.061e-02
1.630e-01,1.030e-02
1.642e-01,9.995e-03
1.654e-01,9.703e-03
1.666e-01,9.421e-03
1.678e-01,9.148e-03
1.690e-01,8.885e-03
1.702e-01,8.631e-03
1.713e-01,8.386e-03
1.725e-01,8.149e-03
1.737e-01,7.919e-03
1.749e-01,7.698e-03
1.761e-01,7.484e-03
1.773e-01,7.276e-03
1.785e-01,7.076e-03
1.797e-01,6.882e-03
1.809e-01,6.694e-03
1.821e-01,6.513e-03
1.833e-01,6.337e-03
1.845e-01,6.167e-03
1.857e-01,6.002e-03
1.869e-01,5.842e-03
1.881e-01,5.688e-03
1.893e-01,5.538e-03
1.905e-01,5.393e-03
1.916e-01,5.253e-03
1.928e-01,5.116e-03
1.940e-01,4.984e-03
1.952e-01,4.856e-03
1.964e-01,4.732e-03
1.976e-01,4.612e-03
1.988e-01,4.495e-03
2.000e-01,4.381e-03
2.012e-01,4.271e-03
2.024e-01,4.165e-03
2.036e-01,4.061e-03
2.048e-01,3.961e-03
2.060e-01,3.863e-03
2.072e-01,3.768e-03
2.084e-01,3.676e-03
2.096e-01,3.587e-03
2.107e-01,3.500e-03
2.119e-01,3.416e-03
2.131e-01,3.334e-03
2.143e-01,3.254e-03
2.155e-01,3.177e-03
2.167e-01,3.102e-03
2.179e-01,3.029e-03
2.191e-01,2.958e-03
2.203e-01,2.889e-03
2.215e-01,2.821e-03
2.227e-01,2.756e-03
2.239e-01,2.692e-03
2.251e-01,2.630e-03
2.263e-01,2.570e-03
2.275e-01,2.512e-03
2.287e-01,2.455e-03
2.299e-01,2.399e-03
2.310e-01,2.345e-03
2.322e-01,2.293e-03
2.334e-01,2.241e-03
2.346e-01,2.192e-03
2.358e-01,2.143e-03
2.370e-01,2.096e-03
2.382e-01,2.050e-03
