transmittance,probability_density
1.802e-03,8.506e-03
5.406e-03,5.846e-02
9.010e-03,1.861e-01
1.261e-02,3.956e-01
1.622e-02,6.856e-01
1.982e-02,1.046e+00
2.343e-02,1.461e+00
2.703e-02,1.911e+00
3.064e-02,2.376e+00
3.424e-02,2.839e+00
3.784e-02,3.287e+00
4.145e-02,3.709e+00
4.505e-02,4.097e+00
4.866e-02,4.446e+00
5.226e-02,4.754e+00
5.586e-02,5.019e+00
5.947e-02,5.242e+00
6.307e-02,5.424e+00
6.668e-02,5.567e+00
7.028e-02,5.675e+00
7.389e-02,5.749e+00
7.749e-02,5.794e+00
8.109e-02,5.811e+00
8.470e-02,5.804e+00
8.830e-02,5.775e+00
9.191e-02,5.728e+00
9.551e-02,5.664e+00
9.911e-02,5.586e+00
1.027e-01,5.496e+00
1.063e-01,5.396e+00
1.099e-01,5.288e+00
1.135e-01,5.173e+00
1.171e-01,5.053e+00
1.207e-01,4.929e+00
1.243e-01,4.801e+00
1.279e-01,4.672e+00
1.316e-01,4.541e+00
1.352e-01,4.410e+00
1.388e-01,4.278e+00
1.424e-01,4.148e+00
1.460e-01,4.019e+00
1.496e-01,3.891e+00
1.532e-01,3.765e+00
1.568e-01,3.641e+00
1.604e-01,3.520e+00
1.640e-01,3.401e+00
1.676e-01,3.285e+00
1.712e-01,3.172e+00
1.748e-01,3.061e+00
1.784e-01,2.954e+00
1.820e-01,2.850e+00
1.856e-01,2.748e+00
1.892e-01,2.650e+00
1.928e-01,2.555e+00
1.964e-01,2.463e+00
2.000e-01,2.374e+00
2.036e-01,2.288e+00
2.072e-01,2.204e+00
2.108e-01,2.124e+00
2.144e-01,2.046e+00
2.181e-01,1.971e+00
2.217e-01,1.899e+00
2.253e-01,1.829e+00
2.289e-01,1.762e+00
2.325e-01,1.697e+00
2.361e-01,1.635e+00
2.397e-01,1.575e+00
2.433e-01,1.517e+00
2.469e-01,1.461e+00
2.505e-01,1.407e+00
2.541e-01,1.356e+00
2.577e-01,1.306e+00
2.613e-01,1.258e+00
2.649e-01,1.212e+00
2.685e-01,1.168e+00
2.721e-01,1.125e+00
2.757e-01,1.084e+00
2.793e-01,1.045e+00
2.829e-01,1.007e+00
2.865e-01,9.702e-01
2.901e-01,9.351e-01
2.937e-01,9.013e-01
2.973e-01,8.688e-01
3.009e-01,8.376e-01
3.046e-01,8.075e-01
3.082e-01,7.786e-01
3.118e-01,7.507e-01
3.154e-01,7.240e-01
3.190e-01,6.982e-01
3.226e-01,6.734e-01
3.262e-01,6.496e-01
3.298e-01,6.266e-01
3.334e-01,6.046e-01
3.370e-01,5.833e-01
3.406e-01,5.629e-01
3.442e-01,5.432e-01
3.478e-01,5.243e-01
3.514e-01,5.060e-01
3.550e-01,4.885e-01
3.586e-01,4.716e-01
3.622e-01,4.553e-01
3.658e-01,4.397e-01
3.694e-01,4.246e-01
3.730e-01,4.101e-01
3.766e-01,3.961e-01
3.802e-01,3.826e-01
3.838e-01,3.697e-01
3.874e-01,3.572e-01
3.911e-01,3.451e-01
3.947e-01,3.335e-01
3.983e-01,3.223e-01
4.019e-01,3.116e-01
4.055e-01,3.012e-01
4.091e-01,2.912e-01
4.127e-01,2.815e-01
4.163e-01,2.722e-01
4.199e-01,2.633e-01
4.235e-01,2.546e-01
4.271e-01,2.463e-01
4.307e-01,2.382e-01
4.343e-01,2.305e-01
4.379e-01,2.230e-01
4.415e-01,2.158e-01
4.451e-01,2.088e-01
4.487e-01,2.021e-01
4.523e-01,1.956e-01
4.559e-01,1.894e-01
4.595e-01,1.833e-01
4.631e-01,1.775e-01
4.667e-01,1.719e-01
4.703e-01,1.664e-01
4.739e-01,1.612e-01
4.775e-01,1.561e-01
4.812e-01,1.512e-01
4.848e-01,1.465e-01
4.884e-01,1.420e-01
4.920e-01,1.375e-01
4.956e-01,1.333e-01
4.992e-01,1.292e-01
5.028e-01,1.252e-01
5.064e-01,1.214e-01
5.100e-01,1.176e-01
5.136e-01,1.141e-01
5.172e-01,1.106e-01
5.208e-01,1.072e-01
5.244e-01,1.040e-01
5.280e-01,1.008e-01
5.316e-01,9.781e-02
5.352e-01,9.488e-02
5.388e-01,9.204e-02
5.424e-01,8.930e-02
5.460e-01,8.664e-02
5.496e-01,8.407e-02
5.532e-01,8.159e-02
5.568e-01,7.918e-02
5.604e-01,7.686e-02
5.640e-01,7.460e-02
5.677e-01,7.242e-02
5.713e-01,7.031e-02
5.749e-01,6.827e-02
5.785e-01,6.629e-02
5.821e-01,6.437e-02
5.857e-01,6.252e-02
5.893e-01,6.072e-02
5.929e-01,5.898e-02
5.965e-01,5.729e-02
6.001e-01,5.566e-02
6.037e-01,5.408e-02
6.073e-01,5.254e-02
6.109e-01,5.106e-02
6.145e-01,4.962e-02
6.181e-01,4.822e-02
6.217e-01,4.687e-02
6.253e-01,4.556e-02
6.289e-01,4.429e-02
6.325e-01,4.306e-02
6.361e-01,4.186e-02
6.397e-01,4.070e-02
6.433e-01,3.958e-02
6.469e-01,3.849e-02
6.505e-01,3.744e-02
6.542e-01,3.641e-02
6.578e-01,3.542e-02
6.614e-01,3.445e-02
6.650e-01,3.352e-02
6.686e-01,3.261e-02
6.722e-01,3.173e-02
6.758e-01,3.087e-02
6.794e-01,3.004e-02
6.830e-01,2.924e-02
6.866e-01,2.846e-02
6.902e-01,2.770e-02
6.938e-01,2.696e-02
6.974e-01,2.625e-02
7.010e-01,2.555e-02
7.046e-01,2.488e-02
7.082e-01,2.422e-02
7.118e-01,2.359e-02
7.154e-01,2.297e-02
7.190e-01,2.237e-02
