transmittance,probability_density
1.008e-03,3.714e-01
3.024e-03,4.916e+00
5.041e-03,1.139e+01
7.057e-03,1.682e+01
9.073e-03,2.051e+01
1.109e-02,2.263e+01
1.311e-02,2.355e+01
1.512e-02,2.364e+01
1.714e-02,2.316e+01
1.915e-02,2.232e+01
2.117e-02,2.127e+01
2.319e-02,2.010e+01
2.520e-02,1.888e+01
2.722e-02,1.767e+01
2.924e-02,1.648e+01
3.125e-02,1.534e+01
3.327e-02,1.425e+01
3.529e-02,1.323e+01
3.730e-02,1.228e+01
3.932e-02,1.139e+01
4.133e-02,1.057e+01
4.335e-02,9.801e+00
4.537e-02,9.094e+00
4.738e-02,8.441e+00
4.940e-02,7.838e+00
5.142e-02,7.282e+00
5.343e-02,6.769e+00
5.545e-02,6.296e+00
5.746e-02,5.860e+00
5.948e-02,5.458e+00
6.150e-02,5.086e+00
6.351e-02,4.743e+00
6.553e-02,4.426e+00
6.755e-02,4.133e+00
6.956e-02,3.862e+00
7.158e-02,3.612e+00
7.359e-02,3.379e+00
7.561e-02,3.164e+00
7.763e-02,2.965e+00
7.964e-02,2.780e+00
8.166e-02,2.608e+00
8.368e-02,2.448e+00
8.569e-02,2.300e+00
8.771e-02,2.162e+00
8.973e-02,2.033e+00
9.174e-02,1.913e+00
9.376e-02,1.802e+00
9.577e-02,1.697e+00
9.779e-02,1.600e+00
9.981e-02,1.509e+00
1.018e-01,1.424e+00
1.038e-01,1.345e+00
1.059e-01,1.271e+00
1.079e-01,1.201e+00
1.099e-01,1.136e+00
1.119e-01,1.075e+00
1.139e-01,1.018e+00
1.159e-01,9.638e-01
1.180e-01,9.133e-01
1.200e-01,8.658e-01
1.220e-01,8.212e-01
1.240e-01,7.793e-01
1.260e-01,7.398e-01
1.280e-01,7.026e-01
1.301e-01,6.675e-01
1.321e-01,6.345e-01
1.341e-01,6.034e-01
1.361e-01,5.740e-01
1.381e-01,5.462e-01
1.401e-01,5.201e-01
1.421e-01,4.953e-01
1.442e-01,4.719e-01
1.462e-01,4.498e-01
1.482e-01,4.289e-01
1.502e-01,4.091e-01
1.522e-01,3.903e-01
1.542e-01,3.726e-01
1.563e-01,3.557e-01
1.583e-01,3.398e-01
1.603e-01,3.247e-01
1.623e-01,3.103e-01
1.643e-01,2.967e-01
1.663e-01,2.837e-01
1.684e-01,2.714e-01
1.704e-01,2.598e-01
1.724e-01,2.487e-01
1.744e-01,2.381e-01
1.764e-01,2.281e-01
1.784e-01,2.185e-01
1.805e-01,2.094e-01
1.825e-01,2.007e-01
1.845e-01,1.925e-01
1.865e-01,1.846e-01
1.885e-01,1.771e-01
1.905e-01,1.700e-01
1.926e-01,1.632e-01
1.946e-01,1.567e-01
1.966e-01,1.505e-01
1.986e-01,1.446e-01
2.006e-01,1.389e-01
2.026e-01,1.335e-01
2.047e-01,1.284e-01
2.067e-01,1.234e-01
2.087e-01,1.187e-01
2.107e-01,1.142e-01
2.127e-01,1.099e-01
2.147e-01,1.058e-01
2.168e-01,1.018e-01
2.188e-01,9.805e-02
2.208e-01,9.443e-02
2.228e-01,9.096e-02
2.248e-01,8.764e-02
2.268e-01,8.446e-02
2.289e-01,8.141e-02
2.309e-01,7.849e-02
2.329e-01,7.569e-02
2.349e-01,7.300e-02
2.369e-01,7.042e-02
2.389e-01,6.795e-02
2.409e-01,6.557e-02
2.430e-01,6.329e-02
2.450e-01,6.110e-02
2.470e-01,5.900e-02
2.490e-01,5.698e-02
2.510e-01,5.504e-02
2.530e-01,5.317e-02
2.551e-01,5.138e-02
2.571e-01,4.965e-02
2.591e-01,4.799e-02
2.611e-01,4.640e-02
2.631e-01,4.486e-02
2.651e-01,4.339e-02
2.672e-01,4.197e-02
2.692e-01,4.060e-02
2.712e-01,3.928e-02
2.732e-01,3.801e-02
2.752e-01,3.679e-02
2.772e-01,3.561e-02
2.793e-01,3.448e-02
2.813e-01,3.339e-02
2.833e-01,3.233e-02
2.853e-01,3.132e-02
2.873e-01,3.034e-02
2.893e-01,2.939e-02
2.914e-01,2.848e-02
2.934e-01,2.761e-02
2.954e-01,2.676e-02
2.974e-01,2.594e-02
2.994e-01,2.515e-02
3.014e-01,2.439e-02
3.035e-01,2.365e-02
3.055e-01,2.294e-02
3.075e-01,2.226e-02
3.095e-01,2.159e-02
3.115e-01,2.095e-02
3.135e-01,2.033e-02
3.156e-01,1.974e-02
3.176e-01,1.916e-02
3.196e-01,1.860e-02
3.216e-01,1.806e-02
3.236e-01,1.754e-02
3.256e-01,1.703e-02
3.276e-01,1.654e-02
3.297e-01,1.607e-02
3.317e-01,1.561e-02
3.337e-01,1.517e-02
3.357e-01,1.474e-02
3.377e-01,1.433e-02
3.397e-01,1.393e-02
3.418e-01,1.354e-02
3.438e-01,1.316e-02
3.458e-01,1.280e-02
3.478e-01,1.244e-02
3.498e-01,1.210e-02
3.518e-01,1.177e-02
3.539e-01,1.145e-02
3.559e-01,1.114e-02
3.579e-01,1.084e-02
3.599e-01,1.055e-02
3.619e-01,1.026e-02
3.639e-01,9.989e-03
3.660e-01,9.723e-03
3.680e-01,9.464e-03
3.700e-01,9.214e-03
3.720e-01,8.971e-03
3.740e-01,8.736e-03
3.760e-01,8.507e-03
3.781e-01,8.285e-03
3.801e-01,8.070e-03
3.821e-01,7.861e-03
3.841e-01,7.658e-03
3.861e-01,7.462e-03
3.881e-01,7.271e-03
3.902e-01,7.085e-03
3.922e-01,6.905e-03
3.942e-01,6.730e-03
3.962e-01,6.560e-03
3.982e-01,6.395e-03
4.002e-01,6.235e-03
4.023e-01,6.079e-03
