transmittance,probability_density
2.152e-03,7.140e-08
6.456e-03,2.484e-04
1.076e-02,9.179e-04
1.507e-02,1.619e-03
1.937e-02,3.301e-03
2.367e-02,6.485e-03
2.798e-02,1.135e-02
3.228e-02,1.804e-02
3.659e-02,2.671e-02
4.089e-02,3.751e-02
4.520e-02,5.059e-02
4.950e-02,6.610e-02
5.380e-02,8.419e-02
5.811e-02,1.050e-01
6.241e-02,1.287e-01
6.672e-02,1.555e-01
7.102e-02,1.854e-01
7.533e-02,2.187e-01
7.963e-02,2.554e-01
8.393e-02,2.957e-01
8.824e-02,3.396e-01
9.254e-02,3.872e-01
9.685e-02,4.384e-01
1.012e-01,4.934e-01
1.055e-01,5.519e-01
1.098e-01,6.139e-01
1.141e-01,6.793e-01
1.184e-01,7.478e-01
1.227e-01,8.193e-01
1.270e-01,8.935e-01
1.313e-01,9.701e-01
1.356e-01,1.049e+00
1.399e-01,1.129e+00
1.442e-01,1.211e+00
1.485e-01,1.294e+00
1.528e-01,1.377e+00
1.571e-01,1.461e+00
1.614e-01,1.545e+00
1.657e-01,1.628e+00
1.700e-01,1.711e+00
1.743e-01,1.792e+00
1.786e-01,1.872e+00
1.829e-01,1.950e+00
1.872e-01,2.025e+00
1.915e-01,2.099e+00
1.958e-01,2.170e+00
2.001e-01,2.237e+00
2.045e-01,2.302e+00
2.088e-01,2.364e+00
2.131e-01,2.422e+00
2.174e-01,2.477e+00
2.217e-01,2.528e+00
2.260e-01,2.575e+00
2.303e-01,2.618e+00
2.346e-01,2.658e+00
2.389e-01,2.694e+00
2.432e-01,2.726e+00
2.475e-01,2.754e+00
2.518e-01,2.779e+00
2.561e-01,2.799e+00
2.604e-01,2.816e+00
2.647e-01,2.830e+00
2.690e-01,2.839e+00
2.733e-01,2.846e+00
2.776e-01,2.849e+00
2.819e-01,2.849e+00
2.862e-01,2.846e+00
2.905e-01,2.840e+00
2.948e-01,2.831e+00
2.991e-01,2.819e+00
3.035e-01,2.805e+00
3.078e-01,2.788e+00
3.121e-01,2.769e+00
3.164e-01,2.748e+00
3.207e-01,2.725e+00
3.250e-01,2.700e+00
3.293e-01,2.673e+00
3.336e-01,2.644e+00
3.379e-01,2.614e+00
3.422e-01,2.583e+00
3.465e-01,2.550e+00
3.508e-01,2.516e+00
3.551e-01,2.481e+00
3.594e-01,2.445e+00
3.637e-01,2.408e+00
3.680e-01,2.370e+00
3.723e-01,2.332e+00
3.766e-01,2.293e+00
3.809e-01,2.254e+00
3.852e-01,2.214e+00
3.895e-01,2.174e+00
3.938e-01,2.134e+00
3.981e-01,2.094e+00
4.025e-01,2.053e+00
4.068e-01,2.013e+00
4.111e-01,1.972e+00
4.154e-01,1.932e+00
4.197e-01,1.891e+00
4.240e-01,1.851e+00
4.283e-01,1.811e+00
4.326e-01,1.772e+00
4.369e-01,1.733e+00
4.412e-01,1.694e+00
4.455e-01,1.655e+00
4.498e-01,1.617e+00
4.541e-01,1.579e+00
4.584e-01,1.542e+00
4.627e-01,1.505e+00
4.670e-01,1.469e+00
4.713e-01,1.433e+00
4.756e-01,1.398e+00
4.799e-01,1.363e+00
4.842e-01,1.329e+00
4.885e-01,1.295e+00
4.928e-01,1.262e+00
4.971e-01,1.230e+00
5.015e-01,1.198e+00
5.058e-01,1.167e+00
5.101e-01,1.136e+00
5.144e-01,1.106e+00
5.187e-01,1.077e+00
5.230e-01,1.048e+00
5.273e-01,1.020e+00
5.316e-01,9.921e-01
5.359e-01,9.651e-01
5.402e-01,9.387e-01
5.445e-01,9.129e-01
5.488e-01,8.876e-01
5.531e-01,8.630e-01
5.574e-01,8.390e-01
5.617e-01,8.155e-01
5.660e-01,7.925e-01
5.703e-01,7.702e-01
5.746e-01,7.483e-01
5.789e-01,7.270e-01
5.832e-01,7.063e-01
5.875e-01,6.860e-01
5.918e-01,6.663e-01
5.961e-01,6.471e-01
6.004e-01,6.284e-01
6.048e-01,6.101e-01
6.091e-01,5.924e-01
6.134e-01,5.751e-01
6.177e-01,5.583e-01
6.220e-01,5.419e-01
6.263e-01,5.260e-01
6.306e-01,5.105e-01
6.349e-01,4.954e-01
6.392e-01,4.807e-01
6.435e-01,4.665e-01
6.478e-01,4.526e-01
6.521e-01,4.391e-01
6.564e-01,4.260e-01
6.607e-01,4.133e-01
6.650e-01,4.009e-01
6.693e-01,3.889e-01
6.736e-01,3.772e-01
6.779e-01,3.659e-01
6.822e-01,3.548e-01
6.865e-01,3.441e-01
6.908e-01,3.337e-01
6.951e-01,3.237e-01
6.994e-01,3.139e-01
7.038e-01,3.043e-01
7.081e-01,2.951e-01
7.124e-01,2.861e-01
7.167e-01,2.774e-01
7.210e-01,2.690e-01
7.253e-01,2.608e-01
7.296e-01,2.529e-01
7.339e-01,2.451e-01
7.382e-01,2.377e-01
7.425e-01,2.304e-01
7.468e-01,2.234e-01
7.511e-01,2.165e-01
7.554e-01,2.099e-01
7.597e-01,2.035e-01
7.640e-01,1.972e-01
7.683e-01,1.912e-01
7.726e-01,1.853e-01
7.769e-01,1.796e-01
7.812e-01,1.741e-01
7.855e-01,1.688e-01
7.898e-01,1.636e-01
7.941e-01,1.586e-01
7.984e-01,1.537e-01
8.028e-01,1.490e-01
8.071e-01,1.444e-01
8.114e-01,1.400e-01
8.157e-01,1.357e-01
8.200e-01,1.315e-01
8.243e-01,1.275e-01
8.286e-01,1.235e-01
8.329e-01,1.197e-01
8.372e-01,1.161e-01
8.415e-01,1.125e-01
8.458e-01,1.090e-01
8.501e-01,1.057e-01
8.544e-01,1.024e-01
8.587e-01,9.929e-02
