transmittance,probability_density
1.223e-03,2.929e-02
3.669e-03,5.650e-01
6.115e-03,1.927e+00
8.560e-03,3.832e+00
1.101e-02,5.885e+00
1.345e-02,7.810e+00
1.590e-02,9.462e+00
1.834e-02,1.079e+01
2.079e-02,1.179e+01
2.324e-02,1.249e+01
2.568e-02,1.293e+01
2.813e-02,1.316e+01
3.057e-02,1.321e+01
3.302e-02,1.311e+01
3.546e-02,1.291e+01
3.791e-02,1.262e+01
4.036e-02,1.227e+01
4.280e-02,1.187e+01
4.525e-02,1.145e+01
4.769e-02,1.100e+01
5.014e-02,1.055e+01
5.259e-02,1.009e+01
5.503e-02,9.633e+00
5.748e-02,9.185e+00
5.992e-02,8.748e+00
6.237e-02,8.322e+00
6.482e-02,7.912e+00
6.726e-02,7.516e+00
6.971e-02,7.136e+00
7.215e-02,6.773e+00
7.460e-02,6.426e+00
7.704e-02,6.096e+00
7.949e-02,5.781e+00
8.194e-02,5.483e+00
8.438e-02,5.199e+00
8.683e-02,4.930e+00
8.927e-02,4.675e+00
9.172e-02,4.433e+00
9.417e-02,4.205e+00
9.661e-02,3.989e+00
9.906e-02,3.784e+00
1.015e-01,3.591e+00
1.039e-01,3.408e+00
1.064e-01,3.235e+00
1.088e-01,3.071e+00
1.113e-01,2.917e+00
1.137e-01,2.770e+00
1.162e-01,2.632e+00
1.186e-01,2.501e+00
1.211e-01,2.378e+00
1.235e-01,2.261e+00
1.260e-01,2.150e+00
1.284e-01,2.046e+00
1.309e-01,1.947e+00
1.333e-01,1.853e+00
1.357e-01,1.764e+00
1.382e-01,1.680e+00
1.406e-01,1.601e+00
1.431e-01,1.525e+00
1.455e-01,1.454e+00
1.480e-01,1.386e+00
1.504e-01,1.322e+00
1.529e-01,1.261e+00
1.553e-01,1.203e+00
1.578e-01,1.148e+00
1.602e-01,1.096e+00
1.626e-01,1.047e+00
1.651e-01,1.000e+00
1.675e-01,9.555e-01
1.700e-01,9.132e-01
1.724e-01,8.730e-01
1.749e-01,8.348e-01
1.773e-01,7.984e-01
1.798e-01,7.639e-01
1.822e-01,7.310e-01
1.847e-01,6.997e-01
1.871e-01,6.699e-01
1.896e-01,6.415e-01
1.920e-01,6.145e-01
1.944e-01,5.887e-01
1.969e-01,5.642e-01
1.993e-01,5.408e-01
2.018e-01,5.186e-01
2.042e-01,4.973e-01
2.067e-01,4.770e-01
2.091e-01,4.577e-01
2.116e-01,4.392e-01
2.140e-01,4.216e-01
2.165e-01,4.048e-01
2.189e-01,3.887e-01
2.213e-01,3.733e-01
2.238e-01,3.587e-01
2.262e-01,3.446e-01
2.287e-01,3.312e-01
2.311e-01,3.184e-01
2.336e-01,3.062e-01
2.360e-01,2.944e-01
2.385e-01,2.832e-01
2.409e-01,2.725e-01
2.434e-01,2.622e-01
2.458e-01,2.523e-01
2.483e-01,2.429e-01
2.507e-01,2.339e-01
2.531e-01,2.252e-01
2.556e-01,2.169e-01
2.580e-01,2.090e-01
2.605e-01,2.014e-01
2.629e-01,1.940e-01
2.654e-01,1.870e-01
2.678e-01,1.803e-01
2.703e-01,1.739e-01
2.727e-01,1.677e-01
2.752e-01,1.617e-01
2.776e-01,1.560e-01
2.800e-01,1.505e-01
2.825e-01,1.453e-01
2.849e-01,1.402e-01
2.874e-01,1.353e-01
2.898e-01,1.307e-01
2.923e-01,1.262e-01
2.947e-01,1.219e-01
2.972e-01,1.177e-01
2.996e-01,1.137e-01
3.021e-01,1.099e-01
3.045e-01,1.062e-01
3.070e-01,1.027e-01
3.094e-01,9.924e-02
3.118e-01,9.595e-02
3.143e-01,9.278e-02
3.167e-01,8.973e-02
3.192e-01,8.679e-02
3.216e-01,8.396e-02
3.241e-01,8.124e-02
3.265e-01,7.861e-02
3.290e-01,7.608e-02
3.314e-01,7.364e-02
3.339e-01,7.129e-02
3.363e-01,6.902e-02
3.388e-01,6.683e-02
3.412e-01,6.473e-02
3.436e-01,6.269e-02
3.461e-01,6.073e-02
3.485e-01,5.884e-02
3.510e-01,5.701e-02
3.534e-01,5.525e-02
3.559e-01,5.355e-02
3.583e-01,5.190e-02
3.608e-01,5.032e-02
3.632e-01,4.879e-02
3.657e-01,4.731e-02
3.681e-01,4.588e-02
3.705e-01,4.450e-02
3.730e-01,4.316e-02
3.754e-01,4.187e-02
3.779e-01,4.063e-02
3.803e-01,3.942e-02
3.828e-01,3.826e-02
3.852e-01,3.713e-02
3.877e-01,3.605e-02
3.901e-01,3.499e-02
3.926e-01,3.398e-02
3.950e-01,3.299e-02
3.975e-01,3.204e-02
3.999e-01,3.112e-02
4.023e-01,3.022e-02
4.048e-01,2.936e-02
4.072e-01,2.852e-02
4.097e-01,2.771e-02
4.121e-01,2.693e-02
4.146e-01,2.617e-02
4.170e-01,2.544e-02
4.195e-01,2.473e-02
4.219e-01,2.404e-02
4.244e-01,2.337e-02
4.268e-01,2.272e-02
4.292e-01,2.209e-02
4.317e-01,2.149e-02
4.341e-01,2.090e-02
4.366e-01,2.033e-02
4.390e-01,1.977e-02
4.415e-01,1.924e-02
4.439e-01,1.872e-02
4.464e-01,1.821e-02
4.488e-01,1.772e-02
4.513e-01,1.725e-02
4.537e-01,1.679e-02
4.562e-01,1.634e-02
4.586e-01,1.591e-02
4.610e-01,1.549e-02
4.635e-01,1.508e-02
4.659e-01,1.469e-02
4.684e-01,1.430e-02
4.708e-01,1.393e-02
4.733e-01,1.357e-02
4.757e-01,1.321e-02
4.782e-01,1.287e-02
4.806e-01,1.254e-02
4.831e-01,1.222e-02
4.855e-01,1.191e-02
4.879e-01,1.160e-02
