transmittance,probability_density
2.500e-03,1.120e-133
7.500e-03,1.829e-68
1.250e-02,7.537e-46
1.750e-02,1.269e-33
2.250e-02,7.151e-26
2.750e-02,1.576e-20
3.250e-02,1.187e-16
3.750e-02,9.658e-14
4.250e-02,1.665e-11
4.750e-02,9.295e-10
5.250e-02,2.230e-08
5.750e-02,2.798e-07
6.250e-02,2.113e-06
6.750e-02,1.065e-05
7.250e-02,3.881e-05
7.750e-02,1.086e-04
8.250e-02,2.446e-04
8.750e-02,4.611e-04
9.250e-02,7.504e-04
9.750e-02,1.082e-03
1.025e-01,1.414e-03
1.075e-01,1.709e-03
1.125e-01,1.951e-03
1.175e-01,2.145e-03
1.225e-01,2.322e-03
1.275e-01,2.523e-03
1.325e-01,2.791e-03
1.375e-01,3.165e-03
1.425e-01,3.670e-03
1.475e-01,4.320e-03
1.525e-01,5.118e-03
1.575e-01,6.059e-03
1.625e-01,7.134e-03
1.675e-01,8.335e-03
1.725e-01,9.658e-03
1.775e-01,1.110e-02
1.825e-01,1.267e-02
1.875e-01,1.438e-02
1.925e-01,1.624e-02
1.975e-01,1.828e-02
2.025e-01,2.050e-02
2.075e-01,2.292e-02
2.125e-01,2.558e-02
2.175e-01,2.848e-02
2.225e-01,3.163e-02
2.275e-01,3.506e-02
2.325e-01,3.877e-02
2.375e-01,4.277e-02
2.425e-01,4.706e-02
2.475e-01,5.165e-02
2.525e-01,5.655e-02
2.575e-01,6.175e-02
2.625e-01,6.726e-02
2.675e-01,7.309e-02
2.725e-01,7.924e-02
2.775e-01,8.574e-02
2.825e-01,9.258e-02
2.875e-01,9.979e-02
2.925e-01,1.074e-01
2.975e-01,1.154e-01
3.025e-01,1.239e-01
3.075e-01,1.328e-01
3.125e-01,1.422e-01
3.175e-01,1.522e-01
3.225e-01,1.628e-01
3.275e-01,1.739e-01
3.325e-01,1.857e-01
3.375e-01,1.983e-01
3.425e-01,2.115e-01
3.475e-01,2.255e-01
3.525e-01,2.403e-01
3.575e-01,2.560e-01
3.625e-01,2.725e-01
3.675e-01,2.899e-01
3.725e-01,3.083e-01
3.775e-01,3.277e-01
3.825e-01,3.481e-01
3.875e-01,3.695e-01
3.925e-01,3.920e-01
3.975e-01,4.156e-01
4.025e-01,4.404e-01
4.075e-01,4.664e-01
4.125e-01,4.936e-01
4.175e-01,5.220e-01
4.225e-01,5.518e-01
4.275e-01,5.829e-01
4.325e-01,6.155e-01
4.375e-01,6.494e-01
4.425e-01,6.848e-01
4.475e-01,7.217e-01
4.525e-01,7.601e-01
4.575e-01,8.001e-01
4.625e-01,8.417e-01
4.675e-01,8.849e-01
4.725e-01,9.298e-01
4.775e-01,9.763e-01
4.825e-01,1.024e+00
4.875e-01,1.074e+00
4.925e-01,1.126e+00
4.975e-01,1.179e+00
5.025e-01,1.233e+00
5.075e-01,1.289e+00
5.125e-01,1.347e+00
5.175e-01,1.406e+00
5.225e-01,1.466e+00
5.275e-01,1.528e+00
5.325e-01,1.590e+00
5.375e-01,1.653e+00
5.425e-01,1.717e+00
5.475e-01,1.782e+00
5.525e-01,1.847e+00
5.575e-01,1.912e+00
5.625e-01,1.978e+00
5.675e-01,2.043e+00
5.725e-01,2.107e+00
5.775e-01,2.171e+00
5.825e-01,2.234e+00
5.875e-01,2.295e+00
5.925e-01,2.355e+00
5.975e-01,2.414e+00
6.025e-01,2.470e+00
6.075e-01,2.524e+00
6.125e-01,2.576e+00
6.175e-01,2.624e+00
6.225e-01,2.670e+00
6.275e-01,2.713e+00
6.325e-01,2.752e+00
6.375e-01,2.788e+00
6.425e-01,2.820e+00
6.475e-01,2.848e+00
6.525e-01,2.872e+00
6.575e-01,2.892e+00
6.625e-01,2.908e+00
6.675e-01,2.919e+00
6.725e-01,2.927e+00
6.775e-01,2.929e+00
6.825e-01,2.928e+00
6.875e-01,2.922e+00
6.925e-01,2.912e+00
6.975e-01,2.898e+00
7.025e-01,2.879e+00
7.075e-01,2.857e+00
7.125e-01,2.830e+00
7.175e-01,2.800e+00
7.225e-01,2.767e+00
7.275e-01,2.730e+00
7.325e-01,2.690e+00
7.375e-01,2.646e+00
7.425e-01,2.600e+00
7.475e-01,2.552e+00
7.525e-01,2.500e+00
7.575e-01,2.447e+00
7.625e-01,2.392e+00
7.675e-01,2.335e+00
7.725e-01,2.276e+00
7.775e-01,2.216e+00
7.825e-01,2.155e+00
7.875e-01,2.094e+00
7.925e-01,2.031e+00
7.975e-01,1.968e+00
8.025e-01,1.905e+00
8.075e-01,1.841e+00
8.125e-01,1.778e+00
8.175e-01,1.715e+00
8.225e-01,1.652e+00
8.275e-01,1.590e+00
8.325e-01,1.528e+00
8.375e-01,1.468e+00
8.425e-01,1.408e+00
8.475e-01,1.349e+00
8.525e-01,1.292e+00
8.575e-01,1.235e+00
8.625e-01,1.180e+00
8.675e-01,1.126e+00
8.725e-01,1.074e+00
8.775e-01,1.023e+00
8.825e-01,9.738e-01
8.875e-01,9.259e-01
8.925e-01,8.796e-01
8.975e-01,8.348e-01
9.025e-01,7.916e-01
9.075e-01,7.500e-01
9.125e-01,7.100e-01
9.175e-01,6.715e-01
9.225e-01,6.346e-01
9.275e-01,5.992e-01
9.325e-01,5.654e-01
9.375e-01,5.330e-01
9.425e-01,5.021e-01
9.475e-01,4.726e-01
9.525e-01,4.445e-01
9.575e-01,4.178e-01
9.625e-01,3.923e-01
9.675e-01,3.682e-01
9.725e-01,3.453e-01
9.775e-01,3.236e-01
9.825e-01,3.030e-01
9.875e-01,2.836e-01
9.925e-01,2.652e-01
9.975e-01,2.479e-01
