transmittance,probability_density
1.478e-03,4.441e-03
4.435e-03,8.520e-02
7.392e-03,3.391e-01
1.035e-02,8.178e-01
1.331e-02,1.500e+00
1.626e-02,2.324e+00
1.922e-02,3.217e+00
2.218e-02,4.119e+00
2.513e-02,4.979e+00
2.809e-02,5.766e+00
3.105e-02,6.460e+00
3.400e-02,7.051e+00
3.696e-02,7.539e+00
3.992e-02,7.925e+00
4.287e-02,8.217e+00
4.583e-02,8.422e+00
4.879e-02,8.550e+00
5.174e-02,8.610e+00
5.470e-02,8.611e+00
5.766e-02,8.562e+00
6.061e-02,8.470e+00
6.357e-02,8.344e+00
6.653e-02,8.188e+00
6.948e-02,8.009e+00
7.244e-02,7.812e+00
7.540e-02,7.600e+00
7.836e-02,7.379e+00
8.131e-02,7.150e+00
8.427e-02,6.916e+00
8.723e-02,6.681e+00
9.018e-02,6.445e+00
9.314e-02,6.210e+00
9.610e-02,5.978e+00
9.905e-02,5.749e+00
1.020e-01,5.525e+00
1.050e-01,5.305e+00
1.079e-01,5.092e+00
1.109e-01,4.885e+00
1.138e-01,4.683e+00
1.168e-01,4.489e+00
1.198e-01,4.301e+00
1.227e-01,4.119e+00
1.257e-01,3.944e+00
1.286e-01,3.776e+00
1.316e-01,3.615e+00
1.345e-01,3.460e+00
1.375e-01,3.311e+00
1.404e-01,3.168e+00
1.434e-01,3.031e+00
1.464e-01,2.900e+00
1.493e-01,2.774e+00
1.523e-01,2.654e+00
1.552e-01,2.540e+00
1.582e-01,2.430e+00
1.611e-01,2.325e+00
1.641e-01,2.224e+00
1.671e-01,2.129e+00
1.700e-01,2.037e+00
1.730e-01,1.949e+00
1.759e-01,1.866e+00
1.789e-01,1.786e+00
1.818e-01,1.710e+00
1.848e-01,1.637e+00
1.878e-01,1.567e+00
1.907e-01,1.501e+00
1.937e-01,1.438e+00
1.966e-01,1.377e+00
1.996e-01,1.319e+00
2.025e-01,1.264e+00
2.055e-01,1.211e+00
2.085e-01,1.161e+00
2.114e-01,1.113e+00
2.144e-01,1.067e+00
2.173e-01,1.023e+00
2.203e-01,9.807e-01
2.232e-01,9.406e-01
2.262e-01,9.023e-01
2.292e-01,8.656e-01
2.321e-01,8.306e-01
2.351e-01,7.971e-01
2.380e-01,7.651e-01
2.410e-01,7.344e-01
2.439e-01,7.051e-01
2.469e-01,6.771e-01
2.498e-01,6.503e-01
2.528e-01,6.247e-01
2.558e-01,6.001e-01
2.587e-01,5.766e-01
2.617e-01,5.541e-01
2.646e-01,5.326e-01
2.676e-01,5.120e-01
2.705e-01,4.923e-01
2.735e-01,4.734e-01
2.765e-01,4.553e-01
2.794e-01,4.379e-01
2.824e-01,4.213e-01
2.853e-01,4.053e-01
2.883e-01,3.901e-01
2.912e-01,3.754e-01
2.942e-01,3.614e-01
2.972e-01,3.479e-01
3.001e-01,3.350e-01
3.031e-01,3.227e-01
3.060e-01,3.108e-01
3.090e-01,2.994e-01
3.119e-01,2.884e-01
3.149e-01,2.779e-01
3.179e-01,2.679e-01
3.208e-01,2.582e-01
3.238e-01,2.489e-01
3.267e-01,2.400e-01
3.297e-01,2.314e-01
3.326e-01,2.232e-01
3.356e-01,2.153e-01
3.386e-01,2.077e-01
3.415e-01,2.004e-01
3.445e-01,1.933e-01
3.474e-01,1.866e-01
3.504e-01,1.801e-01
3.533e-01,1.738e-01
3.563e-01,1.678e-01
3.593e-01,1.621e-01
3.622e-01,1.565e-01
3.652e-01,1.512e-01
3.681e-01,1.460e-01
3.711e-01,1.411e-01
3.740e-01,1.363e-01
3.770e-01,1.317e-01
3.799e-01,1.273e-01
3.829e-01,1.230e-01
3.859e-01,1.189e-01
3.888e-01,1.150e-01
3.918e-01,1.112e-01
3.947e-01,1.075e-01
3.977e-01,1.040e-01
4.006e-01,1.006e-01
4.036e-01,9.731e-02
4.066e-01,9.415e-02
4.095e-01,9.110e-02
4.125e-01,8.816e-02
4.154e-01,8.533e-02
4.184e-01,8.259e-02
4.213e-01,7.995e-02
4.243e-01,7.741e-02
4.273e-01,7.495e-02
4.302e-01,7.258e-02
4.332e-01,7.030e-02
4.361e-01,6.809e-02
4.391e-01,6.596e-02
4.420e-01,6.390e-02
4.450e-01,6.191e-02
4.480e-01,6.000e-02
4.509e-01,5.814e-02
4.539e-01,5.635e-02
4.568e-01,5.462e-02
4.598e-01,5.295e-02
4.627e-01,5.134e-02
4.657e-01,4.978e-02
4.687e-01,4.827e-02
4.716e-01,4.682e-02
4.746e-01,4.541e-02
4.775e-01,4.404e-02
4.805e-01,4.273e-02
4.834e-01,4.145e-02
4.864e-01,4.022e-02
4.894e-01,3.903e-02
4.923e-01,3.788e-02
4.953e-01,3.677e-02
4.982e-01,3.569e-02
5.012e-01,3.464e-02
5.041e-01,3.363e-02
5.071e-01,3.266e-02
5.100e-01,3.171e-02
5.130e-01,3.079e-02
5.160e-01,2.991e-02
5.189e-01,2.905e-02
5.219e-01,2.822e-02
5.248e-01,2.741e-02
5.278e-01,2.663e-02
5.307e-01,2.588e-02
5.337e-01,2.514e-02
5.367e-01,2.444e-02
5.396e-01,2.375e-02
5.426e-01,2.308e-02
5.455e-01,2.244e-02
5.485e-01,2.181e-02
5.514e-01,2.121e-02
5.544e-01,2.062e-02
5.574e-01,2.005e-02
5.603e-01,1.950e-02
5.633e-01,1.896e-02
5.662e-01,1.844e-02
5.692e-01,1.794e-02
5.721e-01,1.745e-02
5.751e-01,1.698e-02
5.781e-01,1.652e-02
5.810e-01,1.607e-02
5.840e-01,1.564e-02
5.869e-01,1.522e-02
5.899e-01,1.481e-02
