transmittance,probability_density
2.238e-03,2.561e-36
6.714e-03,3.730e-18
1.119e-02,2.915e-12
1.567e-02,2.907e-09
2.014e-02,1.775e-07
2.462e-02,2.510e-06
2.909e-02,1.499e-05
3.357e-02,5.190e-05
3.805e-02,1.258e-04
4.252e-02,2.413e-04
4.700e-02,3.992e-04
5.147e-02,6.054e-04
5.595e-02,8.768e-04
6.042e-02,1.241e-03
6.490e-02,1.732e-03
6.938e-02,2.386e-03
7.385e-02,3.236e-03
7.833e-02,4.313e-03
8.280e-02,5.644e-03
8.728e-02,7.254e-03
9.176e-02,9.168e-03
9.623e-02,1.141e-02
1.007e-01,1.402e-02
1.052e-01,1.702e-02
1.097e-01,2.046e-02
1.141e-01,2.438e-02
1.186e-01,2.882e-02
1.231e-01,3.383e-02
1.276e-01,3.947e-02
1.320e-01,4.579e-02
1.365e-01,5.284e-02
1.410e-01,6.070e-02
1.455e-01,6.941e-02
1.499e-01,7.903e-02
1.544e-01,8.964e-02
1.589e-01,1.013e-01
1.634e-01,1.140e-01
1.678e-01,1.280e-01
1.723e-01,1.431e-01
1.768e-01,1.596e-01
1.813e-01,1.774e-01
1.857e-01,1.967e-01
1.902e-01,2.174e-01
1.947e-01,2.398e-01
1.992e-01,2.637e-01
2.037e-01,2.894e-01
2.081e-01,3.168e-01
2.126e-01,3.460e-01
2.171e-01,3.771e-01
2.216e-01,4.101e-01
2.260e-01,4.450e-01
2.305e-01,4.818e-01
2.350e-01,5.207e-01
2.395e-01,5.616e-01
2.439e-01,6.044e-01
2.484e-01,6.492e-01
2.529e-01,6.960e-01
2.574e-01,7.447e-01
2.618e-01,7.952e-01
2.663e-01,8.476e-01
2.708e-01,9.017e-01
2.753e-01,9.574e-01
2.797e-01,1.015e+00
2.842e-01,1.073e+00
2.887e-01,1.133e+00
2.932e-01,1.194e+00
2.976e-01,1.256e+00
3.021e-01,1.319e+00
3.066e-01,1.383e+00
3.111e-01,1.447e+00
3.156e-01,1.511e+00
3.200e-01,1.575e+00
3.245e-01,1.640e+00
3.290e-01,1.704e+00
3.335e-01,1.767e+00
3.379e-01,1.830e+00
3.424e-01,1.892e+00
3.469e-01,1.953e+00
3.514e-01,2.012e+00
3.558e-01,2.070e+00
3.603e-01,2.127e+00
3.648e-01,2.182e+00
3.693e-01,2.235e+00
3.737e-01,2.285e+00
3.782e-01,2.334e+00
3.827e-01,2.380e+00
3.872e-01,2.424e+00
3.916e-01,2.465e+00
3.961e-01,2.503e+00
4.006e-01,2.539e+00
4.051e-01,2.572e+00
4.095e-01,2.601e+00
4.140e-01,2.628e+00
4.185e-01,2.653e+00
4.230e-01,2.674e+00
4.274e-01,2.692e+00
4.319e-01,2.707e+00
4.364e-01,2.719e+00
4.409e-01,2.728e+00
4.454e-01,2.734e+00
4.498e-01,2.737e+00
4.543e-01,2.738e+00
4.588e-01,2.736e+00
4.633e-01,2.731e+00
4.677e-01,2.723e+00
4.722e-01,2.713e+00
4.767e-01,2.700e+00
4.812e-01,2.685e+00
4.856e-01,2.668e+00
4.901e-01,2.648e+00
4.946e-01,2.626e+00
4.991e-01,2.603e+00
5.035e-01,2.577e+00
5.080e-01,2.550e+00
5.125e-01,2.521e+00
5.170e-01,2.490e+00
5.214e-01,2.458e+00
5.259e-01,2.424e+00
5.304e-01,2.390e+00
5.349e-01,2.354e+00
5.393e-01,2.317e+00
5.438e-01,2.279e+00
5.483e-01,2.240e+00
5.528e-01,2.201e+00
5.572e-01,2.160e+00
5.617e-01,2.120e+00
5.662e-01,2.078e+00
5.707e-01,2.037e+00
5.752e-01,1.995e+00
5.796e-01,1.952e+00
5.841e-01,1.910e+00
5.886e-01,1.867e+00
5.931e-01,1.825e+00
5.975e-01,1.782e+00
6.020e-01,1.740e+00
6.065e-01,1.698e+00
6.110e-01,1.656e+00
6.154e-01,1.614e+00
6.199e-01,1.573e+00
6.244e-01,1.532e+00
6.289e-01,1.491e+00
6.333e-01,1.451e+00
6.378e-01,1.411e+00
6.423e-01,1.372e+00
6.468e-01,1.333e+00
6.512e-01,1.295e+00
6.557e-01,1.258e+00
6.602e-01,1.221e+00
6.647e-01,1.184e+00
6.691e-01,1.149e+00
6.736e-01,1.114e+00
6.781e-01,1.080e+00
6.826e-01,1.046e+00
6.871e-01,1.013e+00
6.915e-01,9.811e-01
6.960e-01,9.496e-01
7.005e-01,9.189e-01
7.050e-01,8.889e-01
7.094e-01,8.596e-01
7.139e-01,8.310e-01
7.184e-01,8.031e-01
7.229e-01,7.760e-01
7.273e-01,7.495e-01
7.318e-01,7.238e-01
7.363e-01,6.987e-01
7.408e-01,6.744e-01
7.452e-01,6.507e-01
7.497e-01,6.277e-01
7.542e-01,6.053e-01
7.587e-01,5.836e-01
7.631e-01,5.626e-01
7.676e-01,5.422e-01
7.721e-01,5.224e-01
7.766e-01,5.032e-01
7.810e-01,4.846e-01
7.855e-01,4.666e-01
7.900e-01,4.492e-01
7.945e-01,4.323e-01
7.989e-01,4.160e-01
8.034e-01,4.003e-01
8.079e-01,3.850e-01
8.124e-01,3.703e-01
8.169e-01,3.560e-01
8.213e-01,3.423e-01
8.258e-01,3.290e-01
8.303e-01,3.162e-01
8.348e-01,3.038e-01
8.392e-01,2.919e-01
8.437e-01,2.804e-01
8.482e-01,2.693e-01
8.527e-01,2.586e-01
8.571e-01,2.482e-01
8.616e-01,2.383e-01
8.661e-01,2.287e-01
8.706e-01,2.195e-01
8.750e-01,2.106e-01
8.795e-01,2.021e-01
8.840e-01,1.939e-01
8.885e-01,1.859e-01
8.929e-01,1.783e-01
