transmittance,probability_density
6.281e-04,2.922e-20
1.884e-03,6.909e-15
3.141e-03,2.041e-12
4.397e-03,8.296e-11
5.653e-03,1.280e-09
6.909e-03,1.111e-08
8.165e-03,6.572e-08
9.421e-03,2.961e-07
1.068e-02,1.088e-06
1.193e-02,3.409e-06
1.319e-02,9.412e-06
1.445e-02,2.343e-05
1.570e-02,5.347e-05
1.696e-02,1.134e-04
1.821e-02,2.260e-04
1.947e-02,4.265e-04
2.073e-02,7.675e-04
2.198e-02,1.324e-03
2.324e-02,2.201e-03
2.450e-02,3.538e-03
2.575e-02,5.518e-03
2.701e-02,8.375e-03
2.826e-02,1.240e-02
2.952e-02,1.795e-02
3.078e-02,2.545e-02
3.203e-02,3.539e-02
3.329e-02,4.837e-02
3.455e-02,6.502e-02
3.580e-02,8.609e-02
3.706e-02,1.124e-01
3.831e-02,1.448e-01
3.957e-02,1.842e-01
4.083e-02,2.316e-01
4.208e-02,2.882e-01
4.334e-02,3.548e-01
4.460e-02,4.326e-01
4.585e-02,5.226e-01
4.711e-02,6.259e-01
4.836e-02,7.434e-01
4.962e-02,8.761e-01
5.088e-02,1.025e+00
5.213e-02,1.190e+00
5.339e-02,1.373e+00
5.464e-02,1.574e+00
5.590e-02,1.793e+00
5.716e-02,2.030e+00
5.841e-02,2.286e+00
5.967e-02,2.560e+00
6.093e-02,2.853e+00
6.218e-02,3.162e+00
6.344e-02,3.489e+00
6.469e-02,3.831e+00
6.595e-02,4.188e+00
6.721e-02,4.558e+00
6.846e-02,4.941e+00
6.972e-02,5.335e+00
7.098e-02,5.738e+00
7.223e-02,6.148e+00
7.349e-02,6.564e+00
7.474e-02,6.983e+00
7.600e-02,7.405e+00
7.726e-02,7.825e+00
7.851e-02,8.243e+00
7.977e-02,8.657e+00
8.102e-02,9.065e+00
8.228e-02,9.464e+00
8.354e-02,9.852e+00
8.479e-02,1.023e+01
8.605e-02,1.059e+01
8.731e-02,1.094e+01
8.856e-02,1.127e+01
8.982e-02,1.158e+01
9.107e-02,1.187e+01
9.233e-02,1.214e+01
9.359e-02,1.238e+01
9.484e-02,1.261e+01
9.610e-02,1.281e+01
9.736e-02,1.298e+01
9.861e-02,1.313e+01
9.987e-02,1.326e+01
1.011e-01,1.336e+01
1.024e-01,1.343e+01
1.036e-01,1.348e+01
1.049e-01,1.351e+01
1.061e-01,1.351e+01
1.074e-01,1.348e+01
1.087e-01,1.343e+01
1.099e-01,1.336e+01
1.112e-01,1.327e+01
1.124e-01,1.316e+01
1.137e-01,1.302e+01
1.149e-01,1.287e+01
1.162e-01,1.270e+01
1.175e-01,1.251e+01
1.187e-01,1.231e+01
1.200e-01,1.209e+01
1.212e-01,1.186e+01
1.225e-01,1.162e+01
1.237e-01,1.136e+01
1.250e-01,1.110e+01
1.262e-01,1.083e+01
1.275e-01,1.055e+01
1.288e-01,1.026e+01
1.300e-01,9.973e+00
1.313e-01,9.678e+00
1.325e-01,9.381e+00
1.338e-01,9.081e+00
1.350e-01,8.781e+00
1.363e-01,8.480e+00
1.376e-01,8.180e+00
1.388e-01,7.881e+00
1.401e-01,7.585e+00
1.413e-01,7.292e+00
1.426e-01,7.002e+00
1.438e-01,6.717e+00
1.451e-01,6.436e+00
1.463e-01,6.161e+00
1.476e-01,5.891e+00
1.489e-01,5.627e+00
1.501e-01,5.369e+00
1.514e-01,5.118e+00
1.526e-01,4.874e+00
1.539e-01,4.637e+00
1.551e-01,4.408e+00
1.564e-01,4.185e+00
1.577e-01,3.970e+00
1.589e-01,3.763e+00
1.602e-01,3.563e+00
1.614e-01,3.371e+00
1.627e-01,3.186e+00
1.639e-01,3.008e+00
1.652e-01,2.838e+00
1.664e-01,2.676e+00
1.677e-01,2.520e+00
1.690e-01,2.371e+00
1.702e-01,2.230e+00
1.715e-01,2.095e+00
1.727e-01,1.966e+00
1.740e-01,1.844e+00
1.752e-01,1.728e+00
1.765e-01,1.618e+00
1.778e-01,1.514e+00
1.790e-01,1.415e+00
1.803e-01,1.322e+00
1.815e-01,1.234e+00
1.828e-01,1.151e+00
1.840e-01,1.073e+00
1.853e-01,9.990e-01
1.865e-01,9.297e-01
1.878e-01,8.645e-01
1.891e-01,8.033e-01
1.903e-01,7.458e-01
1.916e-01,6.920e-01
1.928e-01,6.416e-01
1.941e-01,5.945e-01
1.953e-01,5.504e-01
1.966e-01,5.092e-01
1.979e-01,4.708e-01
1.991e-01,4.350e-01
2.004e-01,4.016e-01
2.016e-01,3.705e-01
2.029e-01,3.416e-01
2.041e-01,3.148e-01
2.054e-01,2.898e-01
2.066e-01,2.667e-01
2.079e-01,2.452e-01
2.092e-01,2.253e-01
2.104e-01,2.069e-01
2.117e-01,1.899e-01
2.129e-01,1.742e-01
2.142e-01,1.596e-01
2.154e-01,1.462e-01
2.167e-01,1.339e-01
2.180e-01,1.225e-01
2.192e-01,1.120e-01
2.205e-01,1.023e-01
2.217e-01,9.340e-02
2.230e-01,8.523e-02
2.242e-01,7.773e-02
2.255e-01,7.085e-02
2.267e-01,6.453e-02
2.280e-01,5.875e-02
2.293e-01,5.345e-02
2.305e-01,4.860e-02
2.318e-01,4.416e-02
2.330e-01,4.010e-02
2.343e-01,3.640e-02
2.355e-01,3.302e-02
2.368e-01,2.993e-02
2.380e-01,2.712e-02
2.393e-01,2.456e-02
2.406e-01,2.222e-02
2.418e-01,2.010e-02
2.431e-01,1.817e-02
2.443e-01,1.642e-02
2.456e-01,1.482e-02
2.468e-01,1.338e-02
2.481e-01,1.206e-02
2.494e-01,1.087e-02
2.506e-01,9.797e-03
