transmittance,probability_density
1.876e-03,4.258e-26
5.628e-03,4.873e-20
9.380e-03,3.091e-17
1.313e-02,2.120e-15
1.688e-02,4.908e-14
2.064e-02,5.952e-13
2.439e-02,4.700e-12
2.814e-02,2.734e-11
3.189e-02,1.265e-10
3.564e-02,4.896e-10
3.940e-02,1.644e-09
4.315e-02,4.912e-09
4.690e-02,1.332e-08
5.065e-02,3.328e-08
5.441e-02,7.747e-08
5.816e-02,1.697e-07
6.191e-02,3.522e-07
6.566e-02,6.976e-07
6.941e-02,1.325e-06
7.317e-02,2.423e-06
7.692e-02,4.283e-06
8.067e-02,7.344e-06
8.442e-02,1.225e-05
8.817e-02,1.990e-05
9.193e-02,3.160e-05
9.568e-02,4.911e-05
9.943e-02,7.481e-05
1.032e-01,1.119e-04
1.069e-01,1.644e-04
1.107e-01,2.379e-04
1.144e-01,3.390e-04
1.182e-01,4.764e-04
1.219e-01,6.608e-04
1.257e-01,9.051e-04
1.294e-01,1.225e-03
1.332e-01,1.641e-03
1.370e-01,2.175e-03
1.407e-01,2.853e-03
1.445e-01,3.709e-03
1.482e-01,4.778e-03
1.520e-01,6.104e-03
1.557e-01,7.734e-03
1.595e-01,9.723e-03
1.632e-01,1.214e-02
1.670e-01,1.504e-02
1.707e-01,1.851e-02
1.745e-01,2.263e-02
1.782e-01,2.751e-02
1.820e-01,3.323e-02
1.857e-01,3.991e-02
1.895e-01,4.766e-02
1.932e-01,5.662e-02
1.970e-01,6.692e-02
2.007e-01,7.869e-02
2.045e-01,9.209e-02
2.082e-01,1.073e-01
2.120e-01,1.244e-01
2.157e-01,1.436e-01
2.195e-01,1.651e-01
2.232e-01,1.890e-01
2.270e-01,2.155e-01
2.308e-01,2.448e-01
2.345e-01,2.771e-01
2.383e-01,3.124e-01
2.420e-01,3.510e-01
2.458e-01,3.930e-01
2.495e-01,4.385e-01
2.533e-01,4.876e-01
2.570e-01,5.405e-01
2.608e-01,5.973e-01
2.645e-01,6.580e-01
2.683e-01,7.228e-01
2.720e-01,7.915e-01
2.758e-01,8.643e-01
2.795e-01,9.412e-01
2.833e-01,1.022e+00
2.870e-01,1.107e+00
2.908e-01,1.196e+00
2.945e-01,1.288e+00
2.983e-01,1.384e+00
3.020e-01,1.484e+00
3.058e-01,1.587e+00
3.095e-01,1.692e+00
3.133e-01,1.801e+00
3.171e-01,1.912e+00
3.208e-01,2.026e+00
3.246e-01,2.141e+00
3.283e-01,2.258e+00
3.321e-01,2.376e+00
3.358e-01,2.495e+00
3.396e-01,2.614e+00
3.433e-01,2.733e+00
3.471e-01,2.851e+00
3.508e-01,2.969e+00
3.546e-01,3.085e+00
3.583e-01,3.200e+00
3.621e-01,3.312e+00
3.658e-01,3.421e+00
3.696e-01,3.527e+00
3.733e-01,3.630e+00
3.771e-01,3.728e+00
3.808e-01,3.822e+00
3.846e-01,3.911e+00
3.883e-01,3.995e+00
3.921e-01,4.073e+00
3.958e-01,4.145e+00
3.996e-01,4.211e+00
4.034e-01,4.271e+00
4.071e-01,4.323e+00
4.109e-01,4.369e+00
4.146e-01,4.407e+00
4.184e-01,4.438e+00
4.221e-01,4.461e+00
4.259e-01,4.477e+00
4.296e-01,4.485e+00
4.334e-01,4.486e+00
4.371e-01,4.479e+00
4.409e-01,4.465e+00
4.446e-01,4.443e+00
4.484e-01,4.413e+00
4.521e-01,4.377e+00
4.559e-01,4.334e+00
4.596e-01,4.284e+00
4.634e-01,4.228e+00
4.671e-01,4.165e+00
4.709e-01,4.097e+00
4.746e-01,4.023e+00
4.784e-01,3.944e+00
4.821e-01,3.860e+00
4.859e-01,3.771e+00
4.896e-01,3.679e+00
4.934e-01,3.583e+00
4.972e-01,3.483e+00
5.009e-01,3.381e+00
5.047e-01,3.276e+00
5.084e-01,3.169e+00
5.122e-01,3.061e+00
5.159e-01,2.951e+00
5.197e-01,2.841e+00
5.234e-01,2.730e+00
5.272e-01,2.619e+00
5.309e-01,2.508e+00
5.347e-01,2.398e+00
5.384e-01,2.288e+00
5.422e-01,2.180e+00
5.459e-01,2.073e+00
5.497e-01,1.969e+00
5.534e-01,1.866e+00
5.572e-01,1.765e+00
5.609e-01,1.667e+00
5.647e-01,1.571e+00
5.684e-01,1.479e+00
5.722e-01,1.389e+00
5.759e-01,1.302e+00
5.797e-01,1.219e+00
5.835e-01,1.138e+00
5.872e-01,1.061e+00
5.910e-01,9.874e-01
5.947e-01,9.170e-01
5.985e-01,8.500e-01
6.022e-01,7.864e-01
6.060e-01,7.260e-01
6.097e-01,6.690e-01
6.135e-01,6.151e-01
6.172e-01,5.645e-01
6.210e-01,5.169e-01
6.247e-01,4.723e-01
6.285e-01,4.307e-01
6.322e-01,3.919e-01
6.360e-01,3.558e-01
6.397e-01,3.223e-01
6.435e-01,2.913e-01
6.472e-01,2.627e-01
6.510e-01,2.363e-01
6.547e-01,2.121e-01
6.585e-01,1.899e-01
6.622e-01,1.696e-01
6.660e-01,1.511e-01
6.697e-01,1.343e-01
6.735e-01,1.191e-01
6.773e-01,1.053e-01
6.810e-01,9.283e-02
6.848e-01,8.163e-02
6.885e-01,7.159e-02
6.923e-01,6.261e-02
6.960e-01,5.459e-02
6.998e-01,4.747e-02
7.035e-01,4.115e-02
7.073e-01,3.556e-02
7.110e-01,3.064e-02
7.148e-01,2.631e-02
7.185e-01,2.252e-02
7.223e-01,1.922e-02
7.260e-01,1.634e-02
7.298e-01,1.384e-02
7.335e-01,1.169e-02
7.373e-01,9.831e-03
7.410e-01,8.239e-03
7.448e-01,6.878e-03
7.485e-01,5.719e-03
