transmittance,probability_density
1.622e-03,6.231e-26
4.867e-03,1.421e-19
8.111e-03,1.222e-16
1.136e-02,1.013e-14
1.460e-02,2.680e-13
1.784e-02,3.594e-12
2.109e-02,3.069e-11
2.433e-02,1.900e-10
2.758e-02,9.248e-10
3.082e-02,3.732e-09
3.407e-02,1.297e-08
3.731e-02,3.985e-08
4.056e-02,1.106e-07
4.380e-02,2.815e-07
4.704e-02,6.652e-07
5.029e-02,1.474e-06
5.353e-02,3.089e-06
5.678e-02,6.157e-06
6.002e-02,1.174e-05
6.327e-02,2.153e-05
6.651e-02,3.809e-05
6.976e-02,6.523e-05
7.300e-02,1.085e-04
7.624e-02,1.757e-04
7.949e-02,2.775e-04
8.273e-02,4.284e-04
8.598e-02,6.478e-04
8.922e-02,9.607e-04
9.247e-02,1.399e-03
9.571e-02,2.003e-03
9.896e-02,2.823e-03
1.022e-01,3.921e-03
1.054e-01,5.370e-03
1.087e-01,7.259e-03
1.119e-01,9.692e-03
1.152e-01,1.279e-02
1.184e-01,1.669e-02
1.217e-01,2.156e-02
1.249e-01,2.758e-02
1.282e-01,3.493e-02
1.314e-01,4.386e-02
1.346e-01,5.459e-02
1.379e-01,6.740e-02
1.411e-01,8.256e-02
1.444e-01,1.004e-01
1.476e-01,1.212e-01
1.509e-01,1.453e-01
1.541e-01,1.730e-01
1.574e-01,2.047e-01
1.606e-01,2.408e-01
1.638e-01,2.815e-01
1.671e-01,3.272e-01
1.703e-01,3.783e-01
1.736e-01,4.351e-01
1.768e-01,4.978e-01
1.801e-01,5.667e-01
1.833e-01,6.421e-01
1.866e-01,7.241e-01
1.898e-01,8.130e-01
1.930e-01,9.087e-01
1.963e-01,1.011e+00
1.995e-01,1.121e+00
2.028e-01,1.238e+00
2.060e-01,1.361e+00
2.093e-01,1.491e+00
2.125e-01,1.627e+00
2.158e-01,1.770e+00
2.190e-01,1.918e+00
2.222e-01,2.071e+00
2.255e-01,2.229e+00
2.287e-01,2.391e+00
2.320e-01,2.557e+00
2.352e-01,2.725e+00
2.385e-01,2.896e+00
2.417e-01,3.069e+00
2.450e-01,3.242e+00
2.482e-01,3.415e+00
2.514e-01,3.587e+00
2.547e-01,3.757e+00
2.579e-01,3.925e+00
2.612e-01,4.089e+00
2.644e-01,4.249e+00
2.677e-01,4.404e+00
2.709e-01,4.552e+00
2.742e-01,4.695e+00
2.774e-01,4.829e+00
2.806e-01,4.956e+00
2.839e-01,5.073e+00
2.871e-01,5.182e+00
2.904e-01,5.280e+00
2.936e-01,5.368e+00
2.969e-01,5.446e+00
3.001e-01,5.512e+00
3.034e-01,5.567e+00
3.066e-01,5.610e+00
3.098e-01,5.641e+00
3.131e-01,5.661e+00
3.163e-01,5.669e+00
3.196e-01,5.665e+00
3.228e-01,5.650e+00
3.261e-01,5.623e+00
3.293e-01,5.586e+00
3.326e-01,5.537e+00
3.358e-01,5.479e+00
3.390e-01,5.410e+00
3.423e-01,5.332e+00
3.455e-01,5.245e+00
3.488e-01,5.150e+00
3.520e-01,5.047e+00
3.553e-01,4.937e+00
3.585e-01,4.820e+00
3.618e-01,4.698e+00
3.650e-01,4.570e+00
3.682e-01,4.438e+00
3.715e-01,4.301e+00
3.747e-01,4.162e+00
3.780e-01,4.019e+00
3.812e-01,3.875e+00
3.845e-01,3.730e+00
3.877e-01,3.583e+00
3.910e-01,3.436e+00
3.942e-01,3.290e+00
3.974e-01,3.144e+00
4.007e-01,3.000e+00
4.039e-01,2.857e+00
4.072e-01,2.716e+00
4.104e-01,2.578e+00
4.137e-01,2.443e+00
4.169e-01,2.311e+00
4.202e-01,2.182e+00
4.234e-01,2.057e+00
4.266e-01,1.935e+00
4.299e-01,1.818e+00
4.331e-01,1.705e+00
4.364e-01,1.597e+00
4.396e-01,1.492e+00
4.429e-01,1.393e+00
4.461e-01,1.297e+00
4.494e-01,1.206e+00
4.526e-01,1.120e+00
4.558e-01,1.038e+00
4.591e-01,9.602e-01
4.623e-01,8.869e-01
4.656e-01,8.177e-01
4.688e-01,7.527e-01
4.721e-01,6.916e-01
4.753e-01,6.344e-01
4.786e-01,5.809e-01
4.818e-01,5.310e-01
4.850e-01,4.845e-01
4.883e-01,4.414e-01
4.915e-01,4.014e-01
4.948e-01,3.643e-01
4.980e-01,3.301e-01
5.013e-01,2.986e-01
5.045e-01,2.696e-01
5.078e-01,2.430e-01
5.110e-01,2.186e-01
5.142e-01,1.963e-01
5.175e-01,1.760e-01
5.207e-01,1.575e-01
5.240e-01,1.406e-01
5.272e-01,1.254e-01
5.305e-01,1.115e-01
5.337e-01,9.906e-02
5.370e-01,8.781e-02
5.402e-01,7.769e-02
5.434e-01,6.860e-02
5.467e-01,6.046e-02
5.499e-01,5.318e-02
5.532e-01,4.668e-02
5.564e-01,4.090e-02
5.597e-01,3.576e-02
5.629e-01,3.121e-02
5.662e-01,2.718e-02
5.694e-01,2.362e-02
5.726e-01,2.048e-02
5.759e-01,1.773e-02
5.791e-01,1.531e-02
5.824e-01,1.319e-02
5.856e-01,1.134e-02
5.889e-01,9.733e-03
5.921e-01,8.332e-03
5.954e-01,7.118e-03
5.986e-01,6.066e-03
6.018e-01,5.158e-03
6.051e-01,4.376e-03
6.083e-01,3.704e-03
6.116e-01,3.128e-03
6.148e-01,2.635e-03
6.181e-01,2.214e-03
6.213e-01,1.856e-03
6.246e-01,1.552e-03
6.278e-01,1.295e-03
6.310e-01,1.077e-03
6.343e-01,8.937e-04
6.375e-01,7.397e-04
6.408e-01,6.106e-04
6.440e-01,5.026e-04
6.473e-01,4.126e-04
