transmittance,probability_density
3.121e-05,2.257e-17
9.364e-05,3.169e-12
1.561e-04,7.258e-10
2.185e-04,2.477e-08
2.809e-04,3.335e-07
3.433e-04,2.584e-06
4.058e-04,1.386e-05
4.682e-04,5.727e-05
5.306e-04,1.945e-04
5.930e-04,5.673e-04
6.555e-04,1.465e-03
7.179e-04,3.425e-03
7.803e-04,7.370e-03
8.427e-04,1.479e-02
9.052e-04,2.793e-02
9.676e-04,5.010e-02
1.030e-03,8.584e-02
1.092e-03,1.413e-01
1.155e-03,2.244e-01
1.217e-03,3.452e-01
1.280e-03,5.159e-01
1.342e-03,7.513e-01
1.405e-03,1.069e+00
1.467e-03,1.487e+00
1.529e-03,2.029e+00
1.592e-03,2.719e+00
1.654e-03,3.583e+00
1.717e-03,4.647e+00
1.779e-03,5.942e+00
1.842e-03,7.496e+00
1.904e-03,9.338e+00
1.966e-03,1.150e+01
2.029e-03,1.400e+01
2.091e-03,1.687e+01
2.154e-03,2.014e+01
2.216e-03,2.381e+01
2.279e-03,2.792e+01
2.341e-03,3.246e+01
2.403e-03,3.745e+01
2.466e-03,4.289e+01
2.528e-03,4.878e+01
2.591e-03,5.510e+01
2.653e-03,6.186e+01
2.715e-03,6.902e+01
2.778e-03,7.656e+01
2.840e-03,8.447e+01
2.903e-03,9.270e+01
2.965e-03,1.012e+02
3.028e-03,1.100e+02
3.090e-03,1.189e+02
3.152e-03,1.281e+02
3.215e-03,1.373e+02
3.277e-03,1.466e+02
3.340e-03,1.559e+02
3.402e-03,1.652e+02
3.465e-03,1.743e+02
3.527e-03,1.834e+02
3.589e-03,1.922e+02
3.652e-03,2.008e+02
3.714e-03,2.091e+02
3.777e-03,2.171e+02
3.839e-03,2.247e+02
3.902e-03,2.319e+02
3.964e-03,2.387e+02
4.026e-03,2.449e+02
4.089e-03,2.507e+02
4.151e-03,2.560e+02
4.214e-03,2.608e+02
4.276e-03,2.650e+02
4.339e-03,2.686e+02
4.401e-03,2.717e+02
4.463e-03,2.742e+02
4.526e-03,2.761e+02
4.588e-03,2.774e+02
4.651e-03,2.782e+02
4.713e-03,2.785e+02
4.776e-03,2.782e+02
4.838e-03,2.774e+02
4.900e-03,2.761e+02
4.963e-03,2.743e+02
5.025e-03,2.721e+02
5.088e-03,2.694e+02
5.150e-03,2.663e+02
5.212e-03,2.628e+02
5.275e-03,2.589e+02
5.337e-03,2.547e+02
5.400e-03,2.502e+02
5.462e-03,2.454e+02
5.525e-03,2.404e+02
5.587e-03,2.351e+02
5.649e-03,2.297e+02
5.712e-03,2.240e+02
5.774e-03,2.183e+02
5.837e-03,2.124e+02
5.899e-03,2.063e+02
5.962e-03,2.003e+02
6.024e-03,1.941e+02
6.086e-03,1.879e+02
6.149e-03,1.818e+02
6.211e-03,1.756e+02
6.274e-03,1.694e+02
6.336e-03,1.633e+02
6.399e-03,1.572e+02
6.461e-03,1.512e+02
6.523e-03,1.453e+02
6.586e-03,1.395e+02
6.648e-03,1.337e+02
6.711e-03,1.281e+02
6.773e-03,1.226e+02
6.836e-03,1.172e+02
6.898e-03,1.120e+02
6.960e-03,1.069e+02
7.023e-03,1.019e+02
7.085e-03,9.711e+01
7.148e-03,9.244e+01
7.210e-03,8.793e+01
7.273e-03,8.356e+01
7.335e-03,7.935e+01
7.397e-03,7.528e+01
7.460e-03,7.137e+01
7.522e-03,6.761e+01
7.585e-03,6.401e+01
7.647e-03,6.054e+01
7.709e-03,5.723e+01
7.772e-03,5.405e+01
7.834e-03,5.102e+01
7.897e-03,4.812e+01
7.959e-03,4.535e+01
8.022e-03,4.272e+01
8.084e-03,4.021e+01
8.146e-03,3.782e+01
8.209e-03,3.555e+01
8.271e-03,3.340e+01
8.334e-03,3.136e+01
8.396e-03,2.942e+01
8.459e-03,2.759e+01
8.521e-03,2.585e+01
8.583e-03,2.421e+01
8.646e-03,2.266e+01
8.708e-03,2.120e+01
8.771e-03,1.982e+01
8.833e-03,1.852e+01
8.896e-03,1.729e+01
8.958e-03,1.614e+01
9.020e-03,1.506e+01
9.083e-03,1.404e+01
9.145e-03,1.308e+01
9.208e-03,1.219e+01
9.270e-03,1.134e+01
9.333e-03,1.056e+01
9.395e-03,9.816e+00
9.457e-03,9.125e+00
9.520e-03,8.478e+00
9.582e-03,7.873e+00
9.645e-03,7.307e+00
9.707e-03,6.779e+00
9.770e-03,6.287e+00
9.832e-03,5.827e+00
9.894e-03,5.399e+00
9.957e-03,5.000e+00
1.002e-02,4.629e+00
1.008e-02,4.283e+00
1.014e-02,3.961e+00
1.021e-02,3.662e+00
1.027e-02,3.384e+00
1.033e-02,3.126e+00
1.039e-02,2.886e+00
1.046e-02,2.664e+00
1.052e-02,2.458e+00
1.058e-02,2.267e+00
1.064e-02,2.090e+00
1.071e-02,1.926e+00
1.077e-02,1.774e+00
1.083e-02,1.634e+00
1.089e-02,1.504e+00
1.096e-02,1.384e+00
1.102e-02,1.273e+00
1.108e-02,1.170e+00
1.114e-02,1.076e+00
1.121e-02,9.883e-01
1.127e-02,9.078e-01
1.133e-02,8.336e-01
1.139e-02,7.651e-01
1.145e-02,7.021e-01
1.152e-02,6.440e-01
1.158e-02,5.905e-01
1.164e-02,5.413e-01
1.170e-02,4.961e-01
1.177e-02,4.544e-01
1.183e-02,4.162e-01
1.189e-02,3.810e-01
1.195e-02,3.487e-01
1.202e-02,3.190e-01
1.208e-02,2.918e-01
1.214e-02,2.668e-01
1.220e-02,2.439e-01
1.227e-02,2.229e-01
1.233e-02,2.036e-01
1.239e-02,1.860e-01
1.245e-02,1.698e-01
