transmittance,probability_density
2.500e-03,6.205e-35
7.500e-03,1.650e-27
1.250e-02,4.594e-24
1.750e-02,8.441e-22
2.250e-02,4.111e-20
2.750e-02,9.088e-19
3.250e-02,1.189e-17
3.750e-02,1.071e-16
4.250e-02,7.295e-16
4.750e-02,3.996e-15
5.250e-02,1.840e-14
5.750e-02,7.347e-14
6.250e-02,2.606e-13
6.750e-02,8.362e-13
7.250e-02,2.462e-12
7.750e-02,6.728e-12
8.250e-02,1.723e-11
8.750e-02,4.164e-11
9.250e-02,9.563e-11
9.750e-02,2.098e-10
1.025e-01,4.416e-10
1.075e-01,8.955e-10
1.125e-01,1.755e-09
1.175e-01,3.336e-09
1.225e-01,6.161e-09
1.275e-01,1.109e-08
1.325e-01,1.947e-08
1.375e-01,3.343e-08
1.425e-01,5.623e-08
1.475e-01,9.274e-08
1.525e-01,1.502e-07
1.575e-01,2.392e-07
1.625e-01,3.750e-07
1.675e-01,5.789e-07
1.725e-01,8.813e-07
1.775e-01,1.324e-06
1.825e-01,1.964e-06
1.875e-01,2.879e-06
1.925e-01,4.172e-06
1.975e-01,5.981e-06
2.025e-01,8.487e-06
2.075e-01,1.193e-05
2.125e-01,1.661e-05
2.175e-01,2.292e-05
2.225e-01,3.136e-05
2.275e-01,4.256e-05
2.325e-01,5.731e-05
2.375e-01,7.660e-05
2.425e-01,1.017e-04
2.475e-01,1.340e-04
2.525e-01,1.754e-04
2.575e-01,2.282e-04
2.625e-01,2.950e-04
2.675e-01,3.791e-04
2.725e-01,4.844e-04
2.775e-01,6.156e-04
2.825e-01,7.780e-04
2.875e-01,9.783e-04
2.925e-01,1.224e-03
2.975e-01,1.524e-03
3.025e-01,1.888e-03
3.075e-01,2.329e-03
3.125e-01,2.860e-03
3.175e-01,3.497e-03
3.225e-01,4.257e-03
3.275e-01,5.162e-03
3.325e-01,6.234e-03
3.375e-01,7.500e-03
3.425e-01,8.989e-03
3.475e-01,1.073e-02
3.525e-01,1.277e-02
3.575e-01,1.514e-02
3.625e-01,1.789e-02
3.675e-01,2.107e-02
3.725e-01,2.473e-02
3.775e-01,2.893e-02
3.825e-01,3.374e-02
3.875e-01,3.923e-02
3.925e-01,4.548e-02
3.975e-01,5.256e-02
4.025e-01,6.058e-02
4.075e-01,6.961e-02
4.125e-01,7.977e-02
4.175e-01,9.116e-02
4.225e-01,1.039e-01
4.275e-01,1.181e-01
4.325e-01,1.339e-01
4.375e-01,1.514e-01
4.425e-01,1.707e-01
4.475e-01,1.921e-01
4.525e-01,2.156e-01
4.575e-01,2.414e-01
4.625e-01,2.696e-01
4.675e-01,3.004e-01
4.725e-01,3.339e-01
4.775e-01,3.704e-01
4.825e-01,4.098e-01
4.875e-01,4.524e-01
4.925e-01,4.984e-01
4.975e-01,5.478e-01
5.025e-01,6.007e-01
5.075e-01,6.574e-01
5.125e-01,7.178e-01
5.175e-01,7.821e-01
5.225e-01,8.503e-01
5.275e-01,9.225e-01
5.325e-01,9.987e-01
5.375e-01,1.079e+00
5.425e-01,1.163e+00
5.475e-01,1.252e+00
5.525e-01,1.344e+00
5.575e-01,1.440e+00
5.625e-01,1.539e+00
5.675e-01,1.642e+00
5.725e-01,1.749e+00
5.775e-01,1.858e+00
5.825e-01,1.970e+00
5.875e-01,2.085e+00
5.925e-01,2.202e+00
5.975e-01,2.321e+00
6.025e-01,2.441e+00
6.075e-01,2.561e+00
6.125e-01,2.683e+00
6.175e-01,2.804e+00
6.225e-01,2.924e+00
6.275e-01,3.043e+00
6.325e-01,3.160e+00
6.375e-01,3.275e+00
6.425e-01,3.386e+00
6.475e-01,3.493e+00
6.525e-01,3.596e+00
6.575e-01,3.694e+00
6.625e-01,3.786e+00
6.675e-01,3.871e+00
6.725e-01,3.949e+00
6.775e-01,4.019e+00
6.825e-01,4.081e+00
6.875e-01,4.134e+00
6.925e-01,4.177e+00
6.975e-01,4.210e+00
7.025e-01,4.232e+00
7.075e-01,4.244e+00
7.125e-01,4.244e+00
7.175e-01,4.233e+00
7.225e-01,4.210e+00
7.275e-01,4.176e+00
7.325e-01,4.130e+00
7.375e-01,4.073e+00
7.425e-01,4.004e+00
7.475e-01,3.925e+00
7.525e-01,3.834e+00
7.575e-01,3.733e+00
7.625e-01,3.623e+00
7.675e-01,3.504e+00
7.725e-01,3.376e+00
7.775e-01,3.241e+00
7.825e-01,3.100e+00
7.875e-01,2.953e+00
7.925e-01,2.801e+00
7.975e-01,2.645e+00
8.025e-01,2.487e+00
8.075e-01,2.328e+00
8.125e-01,2.168e+00
8.175e-01,2.008e+00
8.225e-01,1.851e+00
8.275e-01,1.696e+00
8.325e-01,1.545e+00
8.375e-01,1.399e+00
8.425e-01,1.258e+00
8.475e-01,1.124e+00
8.525e-01,9.962e-01
8.575e-01,8.763e-01
8.625e-01,7.644e-01
8.675e-01,6.609e-01
8.725e-01,5.659e-01
8.775e-01,4.796e-01
8.825e-01,4.020e-01
8.875e-01,3.329e-01
8.925e-01,2.721e-01
8.975e-01,2.193e-01
9.025e-01,1.739e-01
9.075e-01,1.356e-01
9.125e-01,1.038e-01
9.175e-01,7.770e-02
9.225e-01,5.682e-02
9.275e-01,4.044e-02
9.325e-01,2.791e-02
9.375e-01,1.859e-02
9.425e-01,1.188e-02
9.475e-01,7.235e-03
9.525e-01,4.155e-03
9.575e-01,2.221e-03
9.625e-01,1.087e-03
9.675e-01,4.740e-04
9.725e-01,1.774e-04
9.775e-01,5.362e-05
9.825e-01,1.173e-05
9.875e-01,1.493e-06
9.925e-01,6.264e-08
9.975e-01,6.242e-11
