transmittance,probability_density
3.916e-01,4.354e-12
3.947e-01,5.791e-12
3.977e-01,7.684e-12
4.008e-01,1.017e-11
4.038e-01,1.344e-11
4.069e-01,1.771e-11
4.099e-01,2.329e-11
4.130e-01,3.055e-11
4.160e-01,4.001e-11
4.191e-01,5.227e-11
4.221e-01,6.816e-11
4.252e-01,8.870e-11
4.282e-01,1.152e-10
4.313e-01,1.493e-10
4.343e-01,1.931e-10
4.374e-01,2.493e-10
4.404e-01,3.212e-10
4.435e-01,4.131e-10
4.465e-01,5.303e-10
4.496e-01,6.795e-10
4.526e-01,8.691e-10
4.557e-01,1.110e-09
4.587e-01,1.414e-09
4.618e-01,1.799e-09
4.648e-01,2.285e-09
4.679e-01,2.897e-09
4.709e-01,3.667e-09
4.740e-01,4.633e-09
4.770e-01,5.845e-09
4.801e-01,7.362e-09
4.831e-01,9.257e-09
4.862e-01,1.162e-08
4.892e-01,1.457e-08
4.923e-01,1.823e-08
4.953e-01,2.278e-08
4.983e-01,2.843e-08
5.014e-01,3.542e-08
5.044e-01,4.406e-08
5.075e-01,5.473e-08
5.105e-01,6.788e-08
5.136e-01,8.408e-08
5.166e-01,1.040e-07
5.197e-01,1.284e-07
5.227e-01,1.584e-07
5.258e-01,1.951e-07
5.288e-01,2.399e-07
5.319e-01,2.947e-07
5.349e-01,3.615e-07
5.380e-01,4.429e-07
5.410e-01,5.418e-07
5.441e-01,6.620e-07
5.471e-01,8.078e-07
5.502e-01,9.844e-07
5.532e-01,1.198e-06
5.563e-01,1.457e-06
5.593e-01,1.768e-06
5.624e-01,2.144e-06
5.654e-01,2.597e-06
5.685e-01,3.142e-06
5.715e-01,3.796e-06
5.746e-01,4.581e-06
5.776e-01,5.521e-06
5.807e-01,6.647e-06
5.837e-01,7.994e-06
5.868e-01,9.602e-06
5.898e-01,1.152e-05
5.929e-01,1.381e-05
5.959e-01,1.653e-05
5.990e-01,1.976e-05
6.020e-01,2.360e-05
6.051e-01,2.816e-05
6.081e-01,3.356e-05
6.112e-01,3.996e-05
6.142e-01,4.752e-05
6.173e-01,5.645e-05
6.203e-01,6.699e-05
6.234e-01,7.941e-05
6.264e-01,9.404e-05
6.295e-01,1.112e-04
6.325e-01,1.315e-04
6.356e-01,1.552e-04
6.386e-01,1.830e-04
6.417e-01,2.156e-04
6.447e-01,2.538e-04
6.478e-01,2.984e-04
6.508e-01,3.505e-04
6.539e-01,4.113e-04
6.569e-01,4.821e-04
6.600e-01,5.646e-04
6.630e-01,6.606e-04
6.661e-01,7.721e-04
6.691e-01,9.015e-04
6.722e-01,1.052e-03
6.752e-01,1.226e-03
6.783e-01,1.427e-03
6.813e-01,1.660e-03
6.844e-01,1.929e-03
6.874e-01,2.239e-03
6.905e-01,2.597e-03
6.935e-01,3.010e-03
6.966e-01,3.485e-03
6.996e-01,4.030e-03
7.027e-01,4.657e-03
7.057e-01,5.376e-03
7.088e-01,6.201e-03
7.118e-01,7.145e-03
7.149e-01,8.225e-03
7.179e-01,9.460e-03
7.210e-01,1.087e-02
7.240e-01,1.248e-02
7.271e-01,1.431e-02
7.301e-01,1.640e-02
7.332e-01,1.877e-02
7.362e-01,2.147e-02
7.393e-01,2.454e-02
7.423e-01,2.801e-02
7.454e-01,3.195e-02
7.484e-01,3.640e-02
7.515e-01,4.144e-02
7.545e-01,4.713e-02
7.576e-01,5.356e-02
7.606e-01,6.080e-02
7.637e-01,6.895e-02
7.667e-01,7.812e-02
7.698e-01,8.843e-02
7.728e-01,1.000e-01
7.759e-01,1.130e-01
7.789e-01,1.275e-01
7.820e-01,1.438e-01
7.850e-01,1.620e-01
7.881e-01,1.822e-01
7.911e-01,2.049e-01
7.942e-01,2.301e-01
7.972e-01,2.582e-01
8.003e-01,2.893e-01
8.033e-01,3.239e-01
8.064e-01,3.623e-01
8.094e-01,4.048e-01
8.125e-01,4.518e-01
8.155e-01,5.036e-01
8.186e-01,5.608e-01
8.216e-01,6.239e-01
8.247e-01,6.932e-01
8.277e-01,7.693e-01
8.308e-01,8.528e-01
8.338e-01,9.443e-01
8.368e-01,1.044e+00
8.399e-01,1.153e+00
8.429e-01,1.272e+00
8.460e-01,1.402e+00
8.490e-01,1.542e+00
8.521e-01,1.695e+00
8.551e-01,1.860e+00
8.582e-01,2.038e+00
8.612e-01,2.230e+00
8.643e-01,2.436e+00
8.673e-01,2.657e+00
8.704e-01,2.894e+00
8.734e-01,3.148e+00
8.765e-01,3.417e+00
8.795e-01,3.703e+00
8.826e-01,4.006e+00
8.856e-01,4.326e+00
8.887e-01,4.662e+00
8.917e-01,5.014e+00
8.948e-01,5.381e+00
8.978e-01,5.763e+00
9.009e-01,6.158e+00
9.039e-01,6.564e+00
9.070e-01,6.979e+00
9.100e-01,7.401e+00
9.131e-01,7.826e+00
9.161e-01,8.250e+00
9.192e-01,8.671e+00
9.222e-01,9.081e+00
9.253e-01,9.477e+00
9.283e-01,9.853e+00
9.314e-01,1.020e+01
9.344e-01,1.051e+01
9.375e-01,1.078e+01
9.405e-01,1.100e+01
9.436e-01,1.115e+01
9.466e-01,1.123e+01
9.497e-01,1.124e+01
9.527e-01,1.115e+01
9.558e-01,1.097e+01
9.588e-01,1.067e+01
9.619e-01,1.027e+01
9.649e-01,9.740e+00
9.680e-01,9.093e+00
9.710e-01,8.326e+00
9.741e-01,7.447e+00
9.771e-01,6.468e+00
9.802e-01,5.411e+00
9.832e-01,4.304e+00
9.863e-01,3.192e+00
9.893e-01,2.130e+00
9.924e-01,1.191e+00
9.954e-01,4.630e-01
9.985e-01,5.308e-02
