transmittance,probability_density
2.500e-03,1.854e-32
7.500e-03,2.093e-25
1.250e-02,3.902e-22
1.750e-02,5.493e-20
2.250e-02,2.189e-18
2.750e-02,4.118e-17
3.250e-02,4.706e-16
3.750e-02,3.771e-15
4.250e-02,2.316e-14
4.750e-02,1.157e-13
5.250e-02,4.899e-13
5.750e-02,1.812e-12
6.250e-02,5.986e-12
6.750e-02,1.798e-11
7.250e-02,4.977e-11
7.750e-02,1.284e-10
8.250e-02,3.111e-10
8.750e-02,7.137e-10
9.250e-02,1.560e-09
9.750e-02,3.264e-09
1.025e-01,6.565e-09
1.075e-01,1.275e-08
1.125e-01,2.396e-08
1.175e-01,4.373e-08
1.225e-01,7.767e-08
1.275e-01,1.346e-07
1.325e-01,2.278e-07
1.375e-01,3.775e-07
1.425e-01,6.133e-07
1.475e-01,9.782e-07
1.525e-01,1.533e-06
1.575e-01,2.365e-06
1.625e-01,3.592e-06
1.675e-01,5.379e-06
1.725e-01,7.947e-06
1.775e-01,1.159e-05
1.825e-01,1.671e-05
1.875e-01,2.380e-05
1.925e-01,3.355e-05
1.975e-01,4.681e-05
2.025e-01,6.467e-05
2.075e-01,8.851e-05
2.125e-01,1.201e-04
2.175e-01,1.615e-04
2.225e-01,2.155e-04
2.275e-01,2.852e-04
2.325e-01,3.748e-04
2.375e-01,4.889e-04
2.425e-01,6.334e-04
2.475e-01,8.152e-04
2.525e-01,1.043e-03
2.575e-01,1.325e-03
2.625e-01,1.674e-03
2.675e-01,2.103e-03
2.725e-01,2.628e-03
2.775e-01,3.265e-03
2.825e-01,4.037e-03
2.875e-01,4.965e-03
2.925e-01,6.078e-03
2.975e-01,7.406e-03
3.025e-01,8.982e-03
3.075e-01,1.084e-02
3.125e-01,1.304e-02
3.175e-01,1.561e-02
3.225e-01,1.861e-02
3.275e-01,2.210e-02
3.325e-01,2.615e-02
3.375e-01,3.082e-02
3.425e-01,3.619e-02
3.475e-01,4.234e-02
3.525e-01,4.937e-02
3.575e-01,5.736e-02
3.625e-01,6.643e-02
3.675e-01,7.668e-02
3.725e-01,8.822e-02
3.775e-01,1.012e-01
3.825e-01,1.157e-01
3.875e-01,1.319e-01
3.925e-01,1.499e-01
3.975e-01,1.698e-01
4.025e-01,1.919e-01
4.075e-01,2.163e-01
4.125e-01,2.430e-01
4.175e-01,2.723e-01
4.225e-01,3.044e-01
4.275e-01,3.393e-01
4.325e-01,3.772e-01
4.375e-01,4.183e-01
4.425e-01,4.627e-01
4.475e-01,5.105e-01
4.525e-01,5.619e-01
4.575e-01,6.170e-01
4.625e-01,6.758e-01
4.675e-01,7.384e-01
4.725e-01,8.050e-01
4.775e-01,8.755e-01
4.825e-01,9.500e-01
4.875e-01,1.028e+00
4.925e-01,1.111e+00
4.975e-01,1.197e+00
5.025e-01,1.287e+00
5.075e-01,1.381e+00
5.125e-01,1.478e+00
5.175e-01,1.579e+00
5.225e-01,1.683e+00
5.275e-01,1.790e+00
5.325e-01,1.899e+00
5.375e-01,2.011e+00
5.425e-01,2.125e+00
5.475e-01,2.240e+00
5.525e-01,2.356e+00
5.575e-01,2.474e+00
5.625e-01,2.591e+00
5.675e-01,2.708e+00
5.725e-01,2.825e+00
5.775e-01,2.940e+00
5.825e-01,3.053e+00
5.875e-01,3.163e+00
5.925e-01,3.270e+00
5.975e-01,3.374e+00
6.025e-01,3.473e+00
6.075e-01,3.567e+00
6.125e-01,3.656e+00
6.175e-01,3.738e+00
6.225e-01,3.814e+00
6.275e-01,3.882e+00
6.325e-01,3.942e+00
6.375e-01,3.994e+00
6.425e-01,4.038e+00
6.475e-01,4.071e+00
6.525e-01,4.096e+00
6.575e-01,4.110e+00
6.625e-01,4.115e+00
6.675e-01,4.109e+00
6.725e-01,4.093e+00
6.775e-01,4.066e+00
6.825e-01,4.029e+00
6.875e-01,3.981e+00
6.925e-01,3.924e+00
6.975e-01,3.856e+00
7.025e-01,3.779e+00
7.075e-01,3.693e+00
7.125e-01,3.598e+00
7.175e-01,3.495e+00
7.225e-01,3.385e+00
7.275e-01,3.267e+00
7.325e-01,3.144e+00
7.375e-01,3.015e+00
7.425e-01,2.882e+00
7.475e-01,2.744e+00
7.525e-01,2.604e+00
7.575e-01,2.462e+00
7.625e-01,2.318e+00
7.675e-01,2.175e+00
7.725e-01,2.031e+00
7.775e-01,1.889e+00
7.825e-01,1.750e+00
7.875e-01,1.613e+00
7.925e-01,1.480e+00
7.975e-01,1.351e+00
8.025e-01,1.226e+00
8.075e-01,1.108e+00
8.125e-01,9.948e-01
8.175e-01,8.881e-01
8.225e-01,7.880e-01
8.275e-01,6.945e-01
8.325e-01,6.080e-01
8.375e-01,5.283e-01
8.425e-01,4.556e-01
8.475e-01,3.897e-01
8.525e-01,3.305e-01
8.575e-01,2.777e-01
8.625e-01,2.310e-01
8.675e-01,1.902e-01
8.725e-01,1.549e-01
8.775e-01,1.246e-01
8.825e-01,9.887e-02
8.875e-01,7.739e-02
8.925e-01,5.964e-02
8.975e-01,4.520e-02
9.025e-01,3.362e-02
9.075e-01,2.451e-02
9.125e-01,1.747e-02
9.175e-01,1.214e-02
9.225e-01,8.202e-03
9.275e-01,5.367e-03
9.325e-01,3.386e-03
9.375e-01,2.048e-03
9.425e-01,1.180e-03
9.475e-01,6.416e-04
9.525e-01,3.255e-04
9.575e-01,1.517e-04
9.625e-01,6.361e-05
9.675e-01,2.328e-05
9.725e-01,7.107e-06
9.775e-01,1.682e-06
9.825e-01,2.713e-07
9.875e-01,2.298e-08
9.925e-01,5.208e-10
9.975e-01,1.386e-13
