transmittance,probability_density
4.304e-01,9.980e-13
4.333e-01,1.324e-12
4.361e-01,1.754e-12
4.390e-01,2.318e-12
4.418e-01,3.057e-12
4.447e-01,4.025e-12
4.476e-01,5.290e-12
4.504e-01,6.939e-12
4.533e-01,9.085e-12
4.561e-01,1.187e-11
4.590e-01,1.549e-11
4.618e-01,2.017e-11
4.647e-01,2.623e-11
4.675e-01,3.404e-11
4.704e-01,4.410e-11
4.733e-01,5.703e-11
4.761e-01,7.364e-11
4.790e-01,9.493e-11
4.818e-01,1.222e-10
4.847e-01,1.570e-10
4.875e-01,2.014e-10
4.904e-01,2.579e-10
4.932e-01,3.298e-10
4.961e-01,4.211e-10
4.989e-01,5.369e-10
5.018e-01,6.834e-10
5.047e-01,8.686e-10
5.075e-01,1.102e-09
5.104e-01,1.397e-09
5.132e-01,1.768e-09
5.161e-01,2.234e-09
5.189e-01,2.819e-09
5.218e-01,3.552e-09
5.246e-01,4.469e-09
5.275e-01,5.616e-09
5.304e-01,7.046e-09
5.332e-01,8.830e-09
5.361e-01,1.105e-08
5.389e-01,1.381e-08
5.418e-01,1.724e-08
5.446e-01,2.148e-08
5.475e-01,2.674e-08
5.503e-01,3.325e-08
5.532e-01,4.129e-08
5.560e-01,5.120e-08
5.589e-01,6.341e-08
5.618e-01,7.844e-08
5.646e-01,9.692e-08
5.675e-01,1.196e-07
5.703e-01,1.474e-07
5.732e-01,1.814e-07
5.760e-01,2.231e-07
5.789e-01,2.740e-07
5.817e-01,3.361e-07
5.846e-01,4.118e-07
5.875e-01,5.040e-07
5.903e-01,6.161e-07
5.932e-01,7.523e-07
5.960e-01,9.175e-07
5.989e-01,1.118e-06
6.017e-01,1.360e-06
6.046e-01,1.654e-06
6.074e-01,2.008e-06
6.103e-01,2.436e-06
6.131e-01,2.951e-06
6.160e-01,3.572e-06
6.189e-01,4.319e-06
6.217e-01,5.217e-06
6.246e-01,6.294e-06
6.274e-01,7.587e-06
6.303e-01,9.135e-06
6.331e-01,1.099e-05
6.360e-01,1.320e-05
6.388e-01,1.585e-05
6.417e-01,1.900e-05
6.446e-01,2.276e-05
6.474e-01,2.724e-05
6.503e-01,3.257e-05
6.531e-01,3.890e-05
6.560e-01,4.642e-05
6.588e-01,5.533e-05
6.617e-01,6.589e-05
6.645e-01,7.839e-05
6.674e-01,9.317e-05
6.702e-01,1.106e-04
6.731e-01,1.312e-04
6.760e-01,1.556e-04
6.788e-01,1.842e-04
6.817e-01,2.179e-04
6.845e-01,2.575e-04
6.874e-01,3.040e-04
6.902e-01,3.586e-04
6.931e-01,4.226e-04
6.959e-01,4.976e-04
6.988e-01,5.854e-04
7.017e-01,6.880e-04
7.045e-01,8.078e-04
7.074e-01,9.477e-04
7.102e-01,1.111e-03
7.131e-01,1.301e-03
7.159e-01,1.522e-03
7.188e-01,1.778e-03
7.216e-01,2.077e-03
7.245e-01,2.423e-03
7.273e-01,2.825e-03
7.302e-01,3.290e-03
7.331e-01,3.828e-03
7.359e-01,4.450e-03
7.388e-01,5.168e-03
7.416e-01,5.997e-03
7.445e-01,6.953e-03
7.473e-01,8.054e-03
7.502e-01,9.320e-03
7.530e-01,1.078e-02
7.559e-01,1.245e-02
7.588e-01,1.437e-02
7.616e-01,1.657e-02
7.645e-01,1.909e-02
7.673e-01,2.197e-02
7.702e-01,2.526e-02
7.730e-01,2.902e-02
7.759e-01,3.331e-02
7.787e-01,3.820e-02
7.816e-01,4.376e-02
7.844e-01,5.009e-02
7.873e-01,5.728e-02
7.902e-01,6.544e-02
7.930e-01,7.469e-02
7.959e-01,8.517e-02
7.987e-01,9.703e-02
8.016e-01,1.104e-01
8.044e-01,1.255e-01
8.073e-01,1.426e-01
8.101e-01,1.618e-01
8.130e-01,1.834e-01
8.159e-01,2.077e-01
8.187e-01,2.350e-01
8.216e-01,2.655e-01
8.244e-01,2.997e-01
8.273e-01,3.380e-01
8.301e-01,3.808e-01
8.330e-01,4.284e-01
8.358e-01,4.816e-01
8.387e-01,5.407e-01
8.415e-01,6.063e-01
8.444e-01,6.792e-01
8.473e-01,7.599e-01
8.501e-01,8.491e-01
8.530e-01,9.477e-01
8.558e-01,1.056e+00
8.587e-01,1.176e+00
8.615e-01,1.307e+00
8.644e-01,1.452e+00
8.672e-01,1.610e+00
8.701e-01,1.782e+00
8.730e-01,1.970e+00
8.758e-01,2.175e+00
8.787e-01,2.398e+00
8.815e-01,2.639e+00
8.844e-01,2.899e+00
8.872e-01,3.180e+00
8.901e-01,3.482e+00
8.929e-01,3.805e+00
8.958e-01,4.151e+00
8.986e-01,4.520e+00
9.015e-01,4.911e+00
9.044e-01,5.325e+00
9.072e-01,5.760e+00
9.101e-01,6.217e+00
9.129e-01,6.693e+00
9.158e-01,7.187e+00
9.186e-01,7.696e+00
9.215e-01,8.217e+00
9.243e-01,8.747e+00
9.272e-01,9.280e+00
9.301e-01,9.811e+00
9.329e-01,1.033e+01
9.358e-01,1.084e+01
9.386e-01,1.132e+01
9.415e-01,1.177e+01
9.443e-01,1.216e+01
9.472e-01,1.251e+01
9.500e-01,1.278e+01
9.529e-01,1.296e+01
9.557e-01,1.305e+01
9.586e-01,1.302e+01
9.615e-01,1.286e+01
9.643e-01,1.256e+01
9.672e-01,1.211e+01
9.700e-01,1.148e+01
9.729e-01,1.069e+01
9.757e-01,9.731e+00
9.786e-01,8.608e+00
9.814e-01,7.341e+00
9.843e-01,5.963e+00
9.872e-01,4.525e+00
9.900e-01,3.100e+00
9.929e-01,1.788e+00
9.957e-01,7.254e-01
9.986e-01,9.004e-02
