transmittance,probability_density
7.888e-01,2.688e-39
7.899e-01,5.096e-39
7.909e-01,9.651e-39
7.920e-01,1.826e-38
7.930e-01,3.449e-38
7.941e-01,6.511e-38
7.952e-01,1.228e-37
7.962e-01,2.312e-37
7.973e-01,4.350e-37
7.983e-01,8.175e-37
7.994e-01,1.535e-36
8.004e-01,2.878e-36
8.015e-01,5.391e-36
8.026e-01,1.009e-35
8.036e-01,1.886e-35
8.047e-01,3.521e-35
8.057e-01,6.568e-35
8.068e-01,1.224e-34
8.079e-01,2.278e-34
8.089e-01,4.234e-34
8.100e-01,7.864e-34
8.110e-01,1.459e-33
8.121e-01,2.704e-33
8.132e-01,5.005e-33
8.142e-01,9.255e-33
8.153e-01,1.710e-32
8.163e-01,3.155e-32
8.174e-01,5.814e-32
8.184e-01,1.071e-31
8.195e-01,1.969e-31
8.206e-01,3.617e-31
8.216e-01,6.639e-31
8.227e-01,1.217e-30
8.237e-01,2.229e-30
8.248e-01,4.077e-30
8.259e-01,7.450e-30
8.269e-01,1.360e-29
8.280e-01,2.479e-29
8.290e-01,4.516e-29
8.301e-01,8.215e-29
8.311e-01,1.493e-28
8.322e-01,2.710e-28
8.333e-01,4.915e-28
8.343e-01,8.903e-28
8.354e-01,1.611e-27
8.364e-01,2.911e-27
8.375e-01,5.256e-27
8.386e-01,9.479e-27
8.396e-01,1.708e-26
8.407e-01,3.073e-26
8.417e-01,5.523e-26
8.428e-01,9.916e-26
8.439e-01,1.778e-25
8.449e-01,3.186e-25
8.460e-01,5.701e-25
8.470e-01,1.019e-24
8.481e-01,1.819e-24
8.491e-01,3.245e-24
8.502e-01,5.780e-24
8.513e-01,1.028e-23
8.523e-01,1.828e-23
8.534e-01,3.245e-23
8.544e-01,5.755e-23
8.555e-01,1.019e-22
8.566e-01,1.803e-22
8.576e-01,3.187e-22
8.587e-01,5.625e-22
8.597e-01,9.918e-22
8.608e-01,1.747e-21
8.618e-01,3.072e-21
8.629e-01,5.398e-21
8.640e-01,9.472e-21
8.650e-01,1.660e-20
8.661e-01,2.907e-20
8.671e-01,5.082e-20
8.682e-01,8.876e-20
8.693e-01,1.548e-19
8.703e-01,2.698e-19
8.714e-01,4.695e-19
8.724e-01,8.160e-19
8.735e-01,1.416e-18
8.746e-01,2.456e-18
8.756e-01,4.252e-18
8.767e-01,7.355e-18
8.777e-01,1.270e-17
8.788e-01,2.192e-17
8.798e-01,3.776e-17
8.809e-01,6.497e-17
8.820e-01,1.117e-16
8.830e-01,1.916e-16
8.841e-01,3.285e-16
8.851e-01,5.623e-16
8.862e-01,9.613e-16
8.873e-01,1.641e-15
8.883e-01,2.798e-15
8.894e-01,4.765e-15
8.904e-01,8.102e-15
8.915e-01,1.376e-14
8.925e-01,2.333e-14
8.936e-01,3.950e-14
8.947e-01,6.680e-14
8.957e-01,1.128e-13
8.968e-01,1.902e-13
8.978e-01,3.203e-13
8.989e-01,5.384e-13
9.000e-01,9.039e-13
9.010e-01,1.515e-12
9.021e-01,2.536e-12
9.031e-01,4.239e-12
9.042e-01,7.073e-12
9.053e-01,1.178e-11
9.063e-01,1.960e-11
9.074e-01,3.256e-11
9.084e-01,5.399e-11
9.095e-01,8.938e-11
9.105e-01,1.477e-10
9.116e-01,2.437e-10
9.127e-01,4.015e-10
9.137e-01,6.602e-10
9.148e-01,1.084e-09
9.158e-01,1.776e-09
9.169e-01,2.905e-09
9.180e-01,4.743e-09
9.190e-01,7.729e-09
9.201e-01,1.257e-08
9.211e-01,2.041e-08
9.222e-01,3.308e-08
9.232e-01,5.349e-08
9.243e-01,8.634e-08
9.254e-01,1.391e-07
9.264e-01,2.235e-07
9.275e-01,3.585e-07
9.285e-01,5.738e-07
9.296e-01,9.164e-07
9.307e-01,1.460e-06
9.317e-01,2.321e-06
9.328e-01,3.681e-06
9.338e-01,5.825e-06
9.349e-01,9.193e-06
9.360e-01,1.447e-05
9.370e-01,2.273e-05
9.381e-01,3.560e-05
9.391e-01,5.560e-05
9.402e-01,8.660e-05
9.412e-01,1.345e-04
9.423e-01,2.083e-04
9.434e-01,3.216e-04
9.444e-01,4.950e-04
9.455e-01,7.594e-04
9.465e-01,1.161e-03
9.476e-01,1.770e-03
9.487e-01,2.688e-03
9.497e-01,4.067e-03
9.508e-01,6.132e-03
9.518e-01,9.207e-03
9.529e-01,1.377e-02
9.539e-01,2.051e-02
9.550e-01,3.041e-02
9.561e-01,4.489e-02
9.571e-01,6.596e-02
9.582e-01,9.643e-02
9.592e-01,1.403e-01
9.603e-01,2.029e-01
9.614e-01,2.919e-01
9.624e-01,4.175e-01
9.635e-01,5.933e-01
9.645e-01,8.377e-01
9.656e-01,1.175e+00
9.667e-01,1.635e+00
9.677e-01,2.259e+00
9.688e-01,3.095e+00
9.698e-01,4.203e+00
9.709e-01,5.655e+00
9.719e-01,7.534e+00
9.730e-01,9.931e+00
9.741e-01,1.294e+01
9.751e-01,1.666e+01
9.762e-01,2.115e+01
9.772e-01,2.647e+01
9.783e-01,3.261e+01
9.794e-01,3.948e+01
9.804e-01,4.689e+01
9.815e-01,5.451e+01
9.825e-01,6.189e+01
9.836e-01,6.843e+01
9.846e-01,7.341e+01
9.857e-01,7.611e+01
9.868e-01,7.585e+01
9.878e-01,7.220e+01
9.889e-01,6.510e+01
9.899e-01,5.501e+01
9.910e-01,4.294e+01
9.921e-01,3.036e+01
9.931e-01,1.890e+01
9.942e-01,9.926e+00
9.952e-01,4.109e+00
9.963e-01,1.189e+00
9.974e-01,1.884e-01
9.984e-01,8.704e-03
9.995e-01,6.323e-06
