transmittance,probability_density
5.102e-01,1.352e-14
5.127e-01,1.812e-14
5.151e-01,2.425e-14
5.176e-01,3.240e-14
5.200e-01,4.323e-14
5.225e-01,5.759e-14
5.250e-01,7.662e-14
5.274e-01,1.018e-13
5.299e-01,1.350e-13
5.323e-01,1.789e-13
5.348e-01,2.366e-13
5.372e-01,3.125e-13
5.397e-01,4.123e-13
5.421e-01,5.432e-13
5.446e-01,7.146e-13
5.471e-01,9.388e-13
5.495e-01,1.232e-12
5.520e-01,1.614e-12
5.544e-01,2.112e-12
5.569e-01,2.760e-12
5.593e-01,3.603e-12
5.618e-01,4.697e-12
5.642e-01,6.115e-12
5.667e-01,7.951e-12
5.691e-01,1.033e-11
5.716e-01,1.339e-11
5.741e-01,1.735e-11
5.765e-01,2.245e-11
5.790e-01,2.901e-11
5.814e-01,3.744e-11
5.839e-01,4.827e-11
5.863e-01,6.215e-11
5.888e-01,7.994e-11
5.912e-01,1.027e-10
5.937e-01,1.318e-10
5.962e-01,1.689e-10
5.986e-01,2.162e-10
6.011e-01,2.764e-10
6.035e-01,3.531e-10
6.060e-01,4.505e-10
6.084e-01,5.741e-10
6.109e-01,7.308e-10
6.133e-01,9.293e-10
6.158e-01,1.180e-09
6.182e-01,1.498e-09
6.207e-01,1.898e-09
6.232e-01,2.403e-09
6.256e-01,3.040e-09
6.281e-01,3.840e-09
6.305e-01,4.847e-09
6.330e-01,6.111e-09
6.354e-01,7.696e-09
6.379e-01,9.682e-09
6.403e-01,1.217e-08
6.428e-01,1.528e-08
6.453e-01,1.916e-08
6.477e-01,2.401e-08
6.502e-01,3.006e-08
6.526e-01,3.759e-08
6.551e-01,4.695e-08
6.575e-01,5.860e-08
6.600e-01,7.306e-08
6.624e-01,9.100e-08
6.649e-01,1.132e-07
6.673e-01,1.408e-07
6.698e-01,1.748e-07
6.723e-01,2.169e-07
6.747e-01,2.688e-07
6.772e-01,3.329e-07
6.796e-01,4.119e-07
6.821e-01,5.091e-07
6.845e-01,6.286e-07
6.870e-01,7.756e-07
6.894e-01,9.559e-07
6.919e-01,1.177e-06
6.944e-01,1.448e-06
6.968e-01,1.780e-06
6.993e-01,2.186e-06
7.017e-01,2.682e-06
7.042e-01,3.287e-06
7.066e-01,4.025e-06
7.091e-01,4.925e-06
7.115e-01,6.020e-06
7.140e-01,7.353e-06
7.164e-01,8.972e-06
7.189e-01,1.094e-05
7.214e-01,1.332e-05
7.238e-01,1.621e-05
7.263e-01,1.971e-05
7.287e-01,2.395e-05
7.312e-01,2.907e-05
7.336e-01,3.525e-05
7.361e-01,4.270e-05
7.385e-01,5.169e-05
7.410e-01,6.252e-05
7.435e-01,7.555e-05
7.459e-01,9.121e-05
7.484e-01,1.100e-04
7.508e-01,1.326e-04
7.533e-01,1.597e-04
7.557e-01,1.921e-04
7.582e-01,2.309e-04
7.606e-01,2.773e-04
7.631e-01,3.328e-04
7.655e-01,3.990e-04
7.680e-01,4.779e-04
7.705e-01,5.719e-04
7.729e-01,6.839e-04
7.754e-01,8.170e-04
7.778e-01,9.752e-04
7.803e-01,1.163e-03
7.827e-01,1.386e-03
7.852e-01,1.650e-03
7.876e-01,1.962e-03
7.901e-01,2.332e-03
7.926e-01,2.769e-03
7.950e-01,3.285e-03
7.975e-01,3.893e-03
7.999e-01,4.610e-03
8.024e-01,5.453e-03
8.048e-01,6.446e-03
8.073e-01,7.612e-03
8.097e-01,8.981e-03
8.122e-01,1.059e-02
8.146e-01,1.247e-02
8.171e-01,1.467e-02
8.196e-01,1.724e-02
8.220e-01,2.024e-02
8.245e-01,2.375e-02
8.269e-01,2.784e-02
8.294e-01,3.259e-02
8.318e-01,3.813e-02
8.343e-01,4.456e-02
8.367e-01,5.202e-02
8.392e-01,6.067e-02
8.417e-01,7.068e-02
8.441e-01,8.226e-02
8.466e-01,9.565e-02
8.490e-01,1.111e-01
8.515e-01,1.289e-01
8.539e-01,1.494e-01
8.564e-01,1.729e-01
8.588e-01,1.999e-01
8.613e-01,2.309e-01
8.637e-01,2.664e-01
8.662e-01,3.070e-01
8.687e-01,3.534e-01
8.711e-01,4.062e-01
8.736e-01,4.663e-01
8.760e-01,5.347e-01
8.785e-01,6.123e-01
8.809e-01,7.003e-01
8.834e-01,7.998e-01
8.858e-01,9.121e-01
8.883e-01,1.039e+00
8.908e-01,1.181e+00
8.932e-01,1.341e+00
8.957e-01,1.520e+00
8.981e-01,1.721e+00
9.006e-01,1.944e+00
9.030e-01,2.193e+00
9.055e-01,2.469e+00
9.079e-01,2.775e+00
9.104e-01,3.113e+00
9.128e-01,3.484e+00
9.153e-01,3.892e+00
9.178e-01,4.339e+00
9.202e-01,4.825e+00
9.227e-01,5.353e+00
9.251e-01,5.924e+00
9.276e-01,6.538e+00
9.300e-01,7.196e+00
9.325e-01,7.896e+00
9.349e-01,8.637e+00
9.374e-01,9.416e+00
9.399e-01,1.023e+01
9.423e-01,1.107e+01
9.448e-01,1.193e+01
9.472e-01,1.279e+01
9.497e-01,1.366e+01
9.521e-01,1.450e+01
9.546e-01,1.531e+01
9.570e-01,1.605e+01
9.595e-01,1.672e+01
9.619e-01,1.727e+01
9.644e-01,1.768e+01
9.669e-01,1.792e+01
9.693e-01,1.795e+01
9.718e-01,1.773e+01
9.742e-01,1.724e+01
9.767e-01,1.644e+01
9.791e-01,1.532e+01
9.816e-01,1.386e+01
9.840e-01,1.208e+01
9.865e-01,1.002e+01
9.890e-01,7.755e+00
9.914e-01,5.402e+00
9.939e-01,3.156e+00
9.963e-01,1.287e+00
9.988e-01,1.561e-01
