transmittance,probability_density
1.102e-03,1.086e+01
3.306e-03,1.340e+01
5.510e-03,1.241e+01
7.713e-03,1.144e+01
9.917e-03,1.072e+01
1.212e-02,1.021e+01
1.433e-02,9.810e+00
1.653e-02,9.484e+00
1.873e-02,9.198e+00
2.094e-02,8.938e+00
2.314e-02,8.697e+00
2.534e-02,8.471e+00
2.755e-02,8.260e+00
2.975e-02,8.063e+00
3.196e-02,7.880e+00
3.416e-02,7.712e+00
3.636e-02,7.559e+00
3.857e-02,7.421e+00
4.077e-02,7.297e+00
4.298e-02,7.188e+00
4.518e-02,7.093e+00
4.738e-02,7.010e+00
4.959e-02,6.938e+00
5.179e-02,6.876e+00
5.399e-02,6.822e+00
5.620e-02,6.773e+00
5.840e-02,6.727e+00
6.061e-02,6.684e+00
6.281e-02,6.640e+00
6.501e-02,6.595e+00
6.722e-02,6.546e+00
6.942e-02,6.493e+00
7.163e-02,6.434e+00
7.383e-02,6.368e+00
7.603e-02,6.296e+00
7.824e-02,6.216e+00
8.044e-02,6.129e+00
8.264e-02,6.034e+00
8.485e-02,5.931e+00
8.705e-02,5.822e+00
8.926e-02,5.706e+00
9.146e-02,5.583e+00
9.366e-02,5.455e+00
9.587e-02,5.321e+00
9.807e-02,5.184e+00
1.003e-01,5.042e+00
1.025e-01,4.897e+00
1.047e-01,4.749e+00
1.069e-01,4.600e+00
1.091e-01,4.449e+00
1.113e-01,4.298e+00
1.135e-01,4.146e+00
1.157e-01,3.995e+00
1.179e-01,3.845e+00
1.201e-01,3.696e+00
1.223e-01,3.549e+00
1.245e-01,3.404e+00
1.267e-01,3.261e+00
1.289e-01,3.121e+00
1.311e-01,2.985e+00
1.333e-01,2.851e+00
1.355e-01,2.721e+00
1.377e-01,2.595e+00
1.399e-01,2.473e+00
1.421e-01,2.354e+00
1.444e-01,2.239e+00
1.466e-01,2.128e+00
1.488e-01,2.022e+00
1.510e-01,1.919e+00
1.532e-01,1.820e+00
1.554e-01,1.725e+00
1.576e-01,1.634e+00
1.598e-01,1.547e+00
1.620e-01,1.464e+00
1.642e-01,1.384e+00
1.664e-01,1.308e+00
1.686e-01,1.236e+00
1.708e-01,1.167e+00
1.730e-01,1.101e+00
1.752e-01,1.039e+00
1.774e-01,9.792e-01
1.796e-01,9.229e-01
1.818e-01,8.694e-01
1.840e-01,8.187e-01
1.862e-01,7.707e-01
1.884e-01,7.253e-01
1.906e-01,6.823e-01
1.928e-01,6.416e-01
1.950e-01,6.032e-01
1.972e-01,5.669e-01
1.994e-01,5.327e-01
2.017e-01,5.004e-01
2.039e-01,4.699e-01
2.061e-01,4.411e-01
2.083e-01,4.141e-01
2.105e-01,3.886e-01
2.127e-01,3.646e-01
2.149e-01,3.420e-01
2.171e-01,3.207e-01
2.193e-01,3.007e-01
2.215e-01,2.820e-01
2.237e-01,2.643e-01
2.259e-01,2.477e-01
2.281e-01,2.321e-01
2.303e-01,2.175e-01
2.325e-01,2.038e-01
2.347e-01,1.909e-01
2.369e-01,1.788e-01
2.391e-01,1.674e-01
2.413e-01,1.568e-01
2.435e-01,1.468e-01
2.457e-01,1.374e-01
2.479e-01,1.287e-01
2.501e-01,1.205e-01
2.523e-01,1.128e-01
2.545e-01,1.055e-01
2.567e-01,9.878e-02
2.590e-01,9.244e-02
2.612e-01,8.651e-02
2.634e-01,8.096e-02
2.656e-01,7.576e-02
2.678e-01,7.089e-02
2.700e-01,6.634e-02
2.722e-01,6.207e-02
2.744e-01,5.808e-02
2.766e-01,5.434e-02
2.788e-01,5.084e-02
2.810e-01,4.757e-02
2.832e-01,4.451e-02
2.854e-01,4.164e-02
2.876e-01,3.896e-02
2.898e-01,3.646e-02
2.920e-01,3.411e-02
2.942e-01,3.192e-02
2.964e-01,2.986e-02
2.986e-01,2.794e-02
3.008e-01,2.615e-02
3.030e-01,2.447e-02
3.052e-01,2.289e-02
3.074e-01,2.142e-02
3.096e-01,2.005e-02
3.118e-01,1.876e-02
3.140e-01,1.756e-02
3.163e-01,1.643e-02
3.185e-01,1.538e-02
3.207e-01,1.440e-02
3.229e-01,1.348e-02
3.251e-01,1.261e-02
3.273e-01,1.181e-02
3.295e-01,1.105e-02
3.317e-01,1.035e-02
3.339e-01,9.690e-03
3.361e-01,9.072e-03
3.383e-01,8.495e-03
3.405e-01,7.955e-03
3.427e-01,7.449e-03
3.449e-01,6.976e-03
3.471e-01,6.534e-03
3.493e-01,6.120e-03
3.515e-01,5.732e-03
3.537e-01,5.370e-03
3.559e-01,5.031e-03
3.581e-01,4.713e-03
3.603e-01,4.416e-03
3.625e-01,4.138e-03
3.647e-01,3.877e-03
3.669e-01,3.633e-03
3.691e-01,3.405e-03
3.713e-01,3.192e-03
3.736e-01,2.992e-03
3.758e-01,2.804e-03
3.780e-01,2.629e-03
3.802e-01,2.465e-03
3.824e-01,2.311e-03
3.846e-01,2.167e-03
3.868e-01,2.032e-03
3.890e-01,1.906e-03
3.912e-01,1.787e-03
3.934e-01,1.677e-03
3.956e-01,1.573e-03
3.978e-01,1.475e-03
4.000e-01,1.384e-03
4.022e-01,1.299e-03
4.044e-01,1.219e-03
4.066e-01,1.144e-03
4.088e-01,1.073e-03
4.110e-01,1.008e-03
4.132e-01,9.457e-04
4.154e-01,8.878e-04
4.176e-01,8.335e-04
4.198e-01,7.826e-04
4.220e-01,7.348e-04
4.242e-01,6.900e-04
4.264e-01,6.481e-04
4.286e-01,6.087e-04
4.309e-01,5.717e-04
4.331e-01,5.371e-04
4.353e-01,5.046e-04
4.375e-01,4.741e-04
4.397e-01,4.455e-04
