transmittance,probability_density
6.600e-04,2.658e+01
1.980e-03,2.815e+01
3.300e-03,2.495e+01
4.620e-03,2.263e+01
5.940e-03,2.102e+01
7.260e-03,1.982e+01
8.580e-03,1.885e+01
9.900e-03,1.802e+01
1.122e-02,1.729e+01
1.254e-02,1.664e+01
1.386e-02,1.606e+01
1.518e-02,1.554e+01
1.650e-02,1.507e+01
1.782e-02,1.465e+01
1.914e-02,1.429e+01
2.046e-02,1.396e+01
2.178e-02,1.368e+01
2.310e-02,1.344e+01
2.442e-02,1.323e+01
2.574e-02,1.304e+01
2.706e-02,1.288e+01
2.838e-02,1.273e+01
2.970e-02,1.259e+01
3.102e-02,1.245e+01
3.234e-02,1.232e+01
3.366e-02,1.218e+01
3.498e-02,1.203e+01
3.630e-02,1.187e+01
3.762e-02,1.170e+01
3.894e-02,1.152e+01
4.026e-02,1.132e+01
4.158e-02,1.111e+01
4.290e-02,1.089e+01
4.422e-02,1.065e+01
4.554e-02,1.040e+01
4.686e-02,1.014e+01
4.818e-02,9.872e+00
4.950e-02,9.594e+00
5.082e-02,9.309e+00
5.214e-02,9.018e+00
5.346e-02,8.723e+00
5.478e-02,8.425e+00
5.610e-02,8.125e+00
5.742e-02,7.825e+00
5.874e-02,7.526e+00
6.006e-02,7.229e+00
6.138e-02,6.936e+00
6.270e-02,6.646e+00
6.402e-02,6.360e+00
6.534e-02,6.081e+00
6.666e-02,5.807e+00
6.798e-02,5.540e+00
6.930e-02,5.281e+00
7.062e-02,5.028e+00
7.194e-02,4.784e+00
7.326e-02,4.547e+00
7.458e-02,4.319e+00
7.590e-02,4.099e+00
7.722e-02,3.887e+00
7.854e-02,3.683e+00
7.986e-02,3.488e+00
8.118e-02,3.301e+00
8.250e-02,3.122e+00
8.382e-02,2.951e+00
8.514e-02,2.788e+00
8.646e-02,2.633e+00
8.778e-02,2.484e+00
8.910e-02,2.344e+00
9.042e-02,2.210e+00
9.174e-02,2.082e+00
9.306e-02,1.962e+00
9.438e-02,1.847e+00
9.570e-02,1.739e+00
9.702e-02,1.636e+00
9.834e-02,1.539e+00
9.966e-02,1.447e+00
1.010e-01,1.361e+00
1.023e-01,1.279e+00
1.036e-01,1.202e+00
1.049e-01,1.129e+00
1.063e-01,1.060e+00
1.076e-01,9.952e-01
1.089e-01,9.342e-01
1.102e-01,8.768e-01
1.115e-01,8.227e-01
1.129e-01,7.718e-01
1.142e-01,7.240e-01
1.155e-01,6.790e-01
1.168e-01,6.368e-01
1.181e-01,5.971e-01
1.195e-01,5.598e-01
1.208e-01,5.247e-01
1.221e-01,4.918e-01
1.234e-01,4.610e-01
1.247e-01,4.320e-01
1.261e-01,4.048e-01
1.274e-01,3.793e-01
1.287e-01,3.554e-01
1.300e-01,3.330e-01
1.313e-01,3.119e-01
1.327e-01,2.922e-01
1.340e-01,2.738e-01
1.353e-01,2.564e-01
1.366e-01,2.402e-01
1.379e-01,2.250e-01
1.393e-01,2.108e-01
1.406e-01,1.974e-01
1.419e-01,1.849e-01
1.432e-01,1.732e-01
1.445e-01,1.623e-01
1.459e-01,1.520e-01
1.472e-01,1.424e-01
1.485e-01,1.334e-01
1.498e-01,1.249e-01
1.511e-01,1.170e-01
1.525e-01,1.096e-01
1.538e-01,1.027e-01
1.551e-01,9.621e-02
1.564e-01,9.014e-02
1.577e-01,8.446e-02
1.591e-01,7.913e-02
1.604e-01,7.415e-02
1.617e-01,6.948e-02
1.630e-01,6.511e-02
1.643e-01,6.102e-02
1.657e-01,5.719e-02
1.670e-01,5.360e-02
1.683e-01,5.024e-02
1.696e-01,4.710e-02
1.709e-01,4.415e-02
1.723e-01,4.139e-02
1.736e-01,3.881e-02
1.749e-01,3.639e-02
1.762e-01,3.412e-02
1.775e-01,3.200e-02
1.789e-01,3.001e-02
1.802e-01,2.815e-02
1.815e-01,2.640e-02
1.828e-01,2.477e-02
1.841e-01,2.324e-02
1.855e-01,2.180e-02
1.868e-01,2.046e-02
1.881e-01,1.920e-02
1.894e-01,1.802e-02
1.907e-01,1.691e-02
1.921e-01,1.587e-02
1.934e-01,1.490e-02
1.947e-01,1.399e-02
1.960e-01,1.313e-02
1.973e-01,1.233e-02
1.987e-01,1.158e-02
2.000e-01,1.087e-02
2.013e-01,1.021e-02
2.026e-01,9.593e-03
2.039e-01,9.012e-03
2.053e-01,8.467e-03
2.066e-01,7.956e-03
2.079e-01,7.476e-03
2.092e-01,7.025e-03
2.105e-01,6.603e-03
2.119e-01,6.206e-03
2.132e-01,5.834e-03
2.145e-01,5.485e-03
2.158e-01,5.157e-03
2.171e-01,4.850e-03
2.185e-01,4.561e-03
2.198e-01,4.289e-03
2.211e-01,4.035e-03
2.224e-01,3.795e-03
2.237e-01,3.571e-03
2.251e-01,3.360e-03
2.264e-01,3.161e-03
2.277e-01,2.975e-03
2.290e-01,2.800e-03
2.303e-01,2.636e-03
2.317e-01,2.481e-03
2.330e-01,2.336e-03
2.343e-01,2.200e-03
2.356e-01,2.071e-03
2.369e-01,1.951e-03
2.383e-01,1.837e-03
2.396e-01,1.731e-03
2.409e-01,1.630e-03
2.422e-01,1.536e-03
2.435e-01,1.447e-03
2.449e-01,1.364e-03
2.462e-01,1.285e-03
2.475e-01,1.211e-03
2.488e-01,1.142e-03
2.501e-01,1.077e-03
2.515e-01,1.015e-03
2.528e-01,9.571e-04
2.541e-01,9.025e-04
2.554e-01,8.512e-04
2.567e-01,8.029e-04
2.581e-01,7.574e-04
2.594e-01,7.145e-04
2.607e-01,6.741e-04
2.620e-01,6.361e-04
2.633e-01,6.003e-04
