transmittance,probability_density
2.500e-03,1.717e-10
7.500e-03,1.993e-05
1.250e-02,7.047e-04
1.750e-02,4.033e-03
2.250e-02,1.108e-02
2.750e-02,2.115e-02
3.250e-02,3.305e-02
3.750e-02,4.597e-02
4.250e-02,5.942e-02
4.750e-02,7.293e-02
5.250e-02,8.596e-02
5.750e-02,9.799e-02
6.250e-02,1.087e-01
6.750e-02,1.178e-01
7.250e-02,1.257e-01
7.750e-02,1.325e-01
8.250e-02,1.385e-01
8.750e-02,1.439e-01
9.250e-02,1.491e-01
9.750e-02,1.540e-01
1.025e-01,1.589e-01
1.075e-01,1.636e-01
1.125e-01,1.684e-01
1.175e-01,1.732e-01
1.225e-01,1.781e-01
1.275e-01,1.832e-01
1.325e-01,1.886e-01
1.375e-01,1.942e-01
1.425e-01,2.001e-01
1.475e-01,2.062e-01
1.525e-01,2.125e-01
1.575e-01,2.190e-01
1.625e-01,2.257e-01
1.675e-01,2.324e-01
1.725e-01,2.392e-01
1.775e-01,2.459e-01
1.825e-01,2.527e-01
1.875e-01,2.593e-01
1.925e-01,2.659e-01
1.975e-01,2.723e-01
2.025e-01,2.785e-01
2.075e-01,2.845e-01
2.125e-01,2.904e-01
2.175e-01,2.962e-01
2.225e-01,3.021e-01
2.275e-01,3.082e-01
2.325e-01,3.147e-01
2.375e-01,3.217e-01
2.425e-01,3.294e-01
2.475e-01,3.381e-01
2.525e-01,3.477e-01
2.575e-01,3.584e-01
2.625e-01,3.701e-01
2.675e-01,3.828e-01
2.725e-01,3.963e-01
2.775e-01,4.104e-01
2.825e-01,4.248e-01
2.875e-01,4.392e-01
2.925e-01,4.533e-01
2.975e-01,4.668e-01
3.025e-01,4.794e-01
3.075e-01,4.908e-01
3.125e-01,5.010e-01
3.175e-01,5.098e-01
3.225e-01,5.173e-01
3.275e-01,5.234e-01
3.325e-01,5.284e-01
3.375e-01,5.325e-01
3.425e-01,5.359e-01
3.475e-01,5.389e-01
3.525e-01,5.419e-01
3.575e-01,5.451e-01
3.625e-01,5.488e-01
3.675e-01,5.533e-01
3.725e-01,5.588e-01
3.775e-01,5.654e-01
3.825e-01,5.733e-01
3.875e-01,5.825e-01
3.925e-01,5.932e-01
3.975e-01,6.052e-01
4.025e-01,6.187e-01
4.075e-01,6.333e-01
4.125e-01,6.493e-01
4.175e-01,6.663e-01
4.225e-01,6.843e-01
4.275e-01,7.032e-01
4.325e-01,7.228e-01
4.375e-01,7.432e-01
4.425e-01,7.641e-01
4.475e-01,7.856e-01
4.525e-01,8.074e-01
4.575e-01,8.297e-01
4.625e-01,8.522e-01
4.675e-01,8.751e-01
4.725e-01,8.981e-01
4.775e-01,9.214e-01
4.825e-01,9.449e-01
4.875e-01,9.686e-01
4.925e-01,9.924e-01
4.975e-01,1.016e+00
5.025e-01,1.041e+00
5.075e-01,1.065e+00
5.125e-01,1.089e+00
5.175e-01,1.113e+00
5.225e-01,1.138e+00
5.275e-01,1.163e+00
5.325e-01,1.187e+00
5.375e-01,1.212e+00
5.425e-01,1.237e+00
5.475e-01,1.262e+00
5.525e-01,1.287e+00
5.575e-01,1.313e+00
5.625e-01,1.338e+00
5.675e-01,1.364e+00
5.725e-01,1.390e+00
5.775e-01,1.417e+00
5.825e-01,1.444e+00
5.875e-01,1.471e+00
5.925e-01,1.499e+00
5.975e-01,1.528e+00
6.025e-01,1.558e+00
6.075e-01,1.588e+00
6.125e-01,1.620e+00
6.175e-01,1.653e+00
6.225e-01,1.687e+00
6.275e-01,1.723e+00
6.325e-01,1.760e+00
6.375e-01,1.799e+00
6.425e-01,1.839e+00
6.475e-01,1.882e+00
6.525e-01,1.927e+00
6.575e-01,1.973e+00
6.625e-01,2.022e+00
6.675e-01,2.073e+00
6.725e-01,2.126e+00
6.775e-01,2.182e+00
6.825e-01,2.239e+00
6.875e-01,2.299e+00
6.925e-01,2.360e+00
6.975e-01,2.422e+00
7.025e-01,2.486e+00
7.075e-01,2.551e+00
7.125e-01,2.616e+00
7.175e-01,2.680e+00
7.225e-01,2.744e+00
7.275e-01,2.805e+00
7.325e-01,2.864e+00
7.375e-01,2.919e+00
7.425e-01,2.969e+00
7.475e-01,3.013e+00
7.525e-01,3.050e+00
7.575e-01,3.079e+00
7.625e-01,3.098e+00
7.675e-01,3.107e+00
7.725e-01,3.106e+00
7.775e-01,3.092e+00
7.825e-01,3.066e+00
7.875e-01,3.027e+00
7.925e-01,2.976e+00
7.975e-01,2.912e+00
8.025e-01,2.836e+00
8.075e-01,2.748e+00
8.125e-01,2.649e+00
8.175e-01,2.541e+00
8.225e-01,2.424e+00
8.275e-01,2.300e+00
8.325e-01,2.171e+00
8.375e-01,2.038e+00
8.425e-01,1.903e+00
8.475e-01,1.767e+00
8.525e-01,1.631e+00
8.575e-01,1.498e+00
8.625e-01,1.368e+00
8.675e-01,1.242e+00
8.725e-01,1.121e+00
8.775e-01,1.007e+00
8.825e-01,8.994e-01
8.875e-01,7.990e-01
8.925e-01,7.059e-01
8.975e-01,6.204e-01
9.025e-01,5.423e-01
9.075e-01,4.716e-01
9.125e-01,4.080e-01
9.175e-01,3.511e-01
9.225e-01,3.007e-01
9.275e-01,2.562e-01
9.325e-01,2.172e-01
9.375e-01,1.833e-01
9.425e-01,1.539e-01
9.475e-01,1.286e-01
9.525e-01,1.070e-01
9.575e-01,8.858e-02
9.625e-01,7.302e-02
9.675e-01,5.992e-02
9.725e-01,4.896e-02
9.775e-01,3.984e-02
9.825e-01,3.227e-02
9.875e-01,2.604e-02
9.925e-01,2.093e-02
9.975e-01,1.675e-02
