transmittance,probability_density
2.500e-03,1.713e-03
7.500e-03,7.901e-02
1.250e-02,2.082e-01
1.750e-02,3.084e-01
2.250e-02,3.737e-01
2.750e-02,4.169e-01
3.250e-02,4.482e-01
3.750e-02,4.733e-01
4.250e-02,4.949e-01
4.750e-02,5.140e-01
5.250e-02,5.312e-01
5.750e-02,5.468e-01
6.250e-02,5.611e-01
6.750e-02,5.751e-01
7.250e-02,5.892e-01
7.750e-02,6.044e-01
8.250e-02,6.208e-01
8.750e-02,6.386e-01
9.250e-02,6.574e-01
9.750e-02,6.767e-01
1.025e-01,6.956e-01
1.075e-01,7.135e-01
1.125e-01,7.297e-01
1.175e-01,7.438e-01
1.225e-01,7.554e-01
1.275e-01,7.647e-01
1.325e-01,7.719e-01
1.375e-01,7.774e-01
1.425e-01,7.818e-01
1.475e-01,7.855e-01
1.525e-01,7.891e-01
1.575e-01,7.931e-01
1.625e-01,7.980e-01
1.675e-01,8.041e-01
1.725e-01,8.116e-01
1.775e-01,8.206e-01
1.825e-01,8.312e-01
1.875e-01,8.433e-01
1.925e-01,8.567e-01
1.975e-01,8.715e-01
2.025e-01,8.874e-01
2.075e-01,9.043e-01
2.125e-01,9.221e-01
2.175e-01,9.406e-01
2.225e-01,9.597e-01
2.275e-01,9.793e-01
2.325e-01,9.992e-01
2.375e-01,1.020e+00
2.425e-01,1.040e+00
2.475e-01,1.061e+00
2.525e-01,1.081e+00
2.575e-01,1.102e+00
2.625e-01,1.122e+00
2.675e-01,1.142e+00
2.725e-01,1.162e+00
2.775e-01,1.181e+00
2.825e-01,1.200e+00
2.875e-01,1.219e+00
2.925e-01,1.237e+00
2.975e-01,1.255e+00
3.025e-01,1.272e+00
3.075e-01,1.289e+00
3.125e-01,1.306e+00
3.175e-01,1.322e+00
3.225e-01,1.337e+00
3.275e-01,1.352e+00
3.325e-01,1.366e+00
3.375e-01,1.380e+00
3.425e-01,1.394e+00
3.475e-01,1.407e+00
3.525e-01,1.419e+00
3.575e-01,1.432e+00
3.625e-01,1.444e+00
3.675e-01,1.455e+00
3.725e-01,1.467e+00
3.775e-01,1.479e+00
3.825e-01,1.490e+00
3.875e-01,1.502e+00
3.925e-01,1.514e+00
3.975e-01,1.526e+00
4.025e-01,1.538e+00
4.075e-01,1.551e+00
4.125e-01,1.564e+00
4.175e-01,1.578e+00
4.225e-01,1.593e+00
4.275e-01,1.608e+00
4.325e-01,1.623e+00
4.375e-01,1.640e+00
4.425e-01,1.657e+00
4.475e-01,1.674e+00
4.525e-01,1.692e+00
4.575e-01,1.711e+00
4.625e-01,1.731e+00
4.675e-01,1.751e+00
4.725e-01,1.771e+00
4.775e-01,1.792e+00
4.825e-01,1.813e+00
4.875e-01,1.834e+00
4.925e-01,1.856e+00
4.975e-01,1.877e+00
5.025e-01,1.899e+00
5.075e-01,1.920e+00
5.125e-01,1.940e+00
5.175e-01,1.961e+00
5.225e-01,1.980e+00
5.275e-01,1.998e+00
5.325e-01,2.016e+00
5.375e-01,2.032e+00
5.425e-01,2.047e+00
5.475e-01,2.060e+00
5.525e-01,2.071e+00
5.575e-01,2.080e+00
5.625e-01,2.087e+00
5.675e-01,2.091e+00
5.725e-01,2.093e+00
5.775e-01,2.093e+00
5.825e-01,2.089e+00
5.875e-01,2.082e+00
5.925e-01,2.072e+00
5.975e-01,2.060e+00
6.025e-01,2.043e+00
6.075e-01,2.024e+00
6.125e-01,2.001e+00
6.175e-01,1.975e+00
6.225e-01,1.946e+00
6.275e-01,1.914e+00
6.325e-01,1.878e+00
6.375e-01,1.840e+00
6.425e-01,1.799e+00
6.475e-01,1.755e+00
6.525e-01,1.709e+00
6.575e-01,1.661e+00
6.625e-01,1.610e+00
6.675e-01,1.558e+00
6.725e-01,1.505e+00
6.775e-01,1.450e+00
6.825e-01,1.394e+00
6.875e-01,1.338e+00
6.925e-01,1.281e+00
6.975e-01,1.224e+00
7.025e-01,1.167e+00
7.075e-01,1.111e+00
7.125e-01,1.054e+00
7.175e-01,9.990e-01
7.225e-01,9.445e-01
7.275e-01,8.912e-01
7.325e-01,8.391e-01
7.375e-01,7.884e-01
7.425e-01,7.393e-01
7.475e-01,6.919e-01
7.525e-01,6.462e-01
7.575e-01,6.023e-01
7.625e-01,5.603e-01
7.675e-01,5.202e-01
7.725e-01,4.821e-01
7.775e-01,4.459e-01
7.825e-01,4.116e-01
7.875e-01,3.793e-01
7.925e-01,3.488e-01
7.975e-01,3.203e-01
8.025e-01,2.935e-01
8.075e-01,2.685e-01
8.125e-01,2.452e-01
8.175e-01,2.235e-01
8.225e-01,2.034e-01
8.275e-01,1.848e-01
8.325e-01,1.677e-01
8.375e-01,1.518e-01
8.425e-01,1.373e-01
8.475e-01,1.239e-01
8.525e-01,1.117e-01
8.575e-01,1.005e-01
8.625e-01,9.030e-02
8.675e-01,8.101e-02
8.725e-01,7.257e-02
8.775e-01,6.492e-02
8.825e-01,5.799e-02
8.875e-01,5.173e-02
8.925e-01,4.608e-02
8.975e-01,4.099e-02
9.025e-01,3.642e-02
9.075e-01,3.231e-02
9.125e-01,2.863e-02
9.175e-01,2.533e-02
9.225e-01,2.239e-02
9.275e-01,1.976e-02
9.325e-01,1.742e-02
9.375e-01,1.534e-02
9.425e-01,1.350e-02
9.475e-01,1.186e-02
9.525e-01,1.040e-02
9.575e-01,9.119e-03
9.625e-01,7.984e-03
9.675e-01,6.983e-03
9.725e-01,6.101e-03
9.775e-01,5.324e-03
9.825e-01,4.642e-03
9.875e-01,4.043e-03
9.925e-01,3.518e-03
9.975e-01,3.058e-03
