transmittance,probability_density
2.500e-03,1.771e-05
7.500e-03,7.178e-03
1.250e-02,3.813e-02
1.750e-02,8.353e-02
2.250e-02,1.297e-01
2.750e-02,1.691e-01
3.250e-02,2.000e-01
3.750e-02,2.235e-01
4.250e-02,2.418e-01
4.750e-02,2.566e-01
5.250e-02,2.693e-01
5.750e-02,2.808e-01
6.250e-02,2.918e-01
6.750e-02,3.025e-01
7.250e-02,3.131e-01
7.750e-02,3.238e-01
8.250e-02,3.343e-01
8.750e-02,3.447e-01
9.250e-02,3.547e-01
9.750e-02,3.644e-01
1.025e-01,3.736e-01
1.075e-01,3.824e-01
1.125e-01,3.909e-01
1.175e-01,3.994e-01
1.225e-01,4.079e-01
1.275e-01,4.170e-01
1.325e-01,4.268e-01
1.375e-01,4.376e-01
1.425e-01,4.496e-01
1.475e-01,4.627e-01
1.525e-01,4.770e-01
1.575e-01,4.921e-01
1.625e-01,5.077e-01
1.675e-01,5.236e-01
1.725e-01,5.391e-01
1.775e-01,5.539e-01
1.825e-01,5.677e-01
1.875e-01,5.801e-01
1.925e-01,5.909e-01
1.975e-01,6.001e-01
2.025e-01,6.076e-01
2.075e-01,6.137e-01
2.125e-01,6.186e-01
2.175e-01,6.225e-01
2.225e-01,6.259e-01
2.275e-01,6.291e-01
2.325e-01,6.323e-01
2.375e-01,6.361e-01
2.425e-01,6.406e-01
2.475e-01,6.461e-01
2.525e-01,6.528e-01
2.575e-01,6.608e-01
2.625e-01,6.701e-01
2.675e-01,6.808e-01
2.725e-01,6.929e-01
2.775e-01,7.062e-01
2.825e-01,7.206e-01
2.875e-01,7.361e-01
2.925e-01,7.525e-01
2.975e-01,7.696e-01
3.025e-01,7.875e-01
3.075e-01,8.059e-01
3.125e-01,8.248e-01
3.175e-01,8.440e-01
3.225e-01,8.636e-01
3.275e-01,8.835e-01
3.325e-01,9.036e-01
3.375e-01,9.238e-01
3.425e-01,9.441e-01
3.475e-01,9.645e-01
3.525e-01,9.850e-01
3.575e-01,1.005e+00
3.625e-01,1.026e+00
3.675e-01,1.046e+00
3.725e-01,1.066e+00
3.775e-01,1.086e+00
3.825e-01,1.106e+00
3.875e-01,1.125e+00
3.925e-01,1.144e+00
3.975e-01,1.163e+00
4.025e-01,1.182e+00
4.075e-01,1.201e+00
4.125e-01,1.219e+00
4.175e-01,1.237e+00
4.225e-01,1.254e+00
4.275e-01,1.272e+00
4.325e-01,1.289e+00
4.375e-01,1.306e+00
4.425e-01,1.323e+00
4.475e-01,1.339e+00
4.525e-01,1.356e+00
4.575e-01,1.373e+00
4.625e-01,1.389e+00
4.675e-01,1.405e+00
4.725e-01,1.422e+00
4.775e-01,1.439e+00
4.825e-01,1.456e+00
4.875e-01,1.473e+00
4.925e-01,1.491e+00
4.975e-01,1.509e+00
5.025e-01,1.527e+00
5.075e-01,1.547e+00
5.125e-01,1.567e+00
5.175e-01,1.587e+00
5.225e-01,1.609e+00
5.275e-01,1.631e+00
5.325e-01,1.654e+00
5.375e-01,1.678e+00
5.425e-01,1.703e+00
5.475e-01,1.729e+00
5.525e-01,1.756e+00
5.575e-01,1.784e+00
5.625e-01,1.813e+00
5.675e-01,1.842e+00
5.725e-01,1.873e+00
5.775e-01,1.904e+00
5.825e-01,1.936e+00
5.875e-01,1.968e+00
5.925e-01,2.001e+00
5.975e-01,2.034e+00
6.025e-01,2.067e+00
6.075e-01,2.099e+00
6.125e-01,2.132e+00
6.175e-01,2.163e+00
6.225e-01,2.194e+00
6.275e-01,2.223e+00
6.325e-01,2.251e+00
6.375e-01,2.277e+00
6.425e-01,2.301e+00
6.475e-01,2.322e+00
6.525e-01,2.340e+00
6.575e-01,2.355e+00
6.625e-01,2.366e+00
6.675e-01,2.373e+00
6.725e-01,2.376e+00
6.775e-01,2.374e+00
6.825e-01,2.367e+00
6.875e-01,2.355e+00
6.925e-01,2.338e+00
6.975e-01,2.316e+00
7.025e-01,2.288e+00
7.075e-01,2.255e+00
7.125e-01,2.216e+00
7.175e-01,2.173e+00
7.225e-01,2.124e+00
7.275e-01,2.071e+00
7.325e-01,2.013e+00
7.375e-01,1.951e+00
7.425e-01,1.886e+00
7.475e-01,1.817e+00
7.525e-01,1.745e+00
7.575e-01,1.672e+00
7.625e-01,1.596e+00
7.675e-01,1.519e+00
7.725e-01,1.442e+00
7.775e-01,1.364e+00
7.825e-01,1.286e+00
7.875e-01,1.209e+00
7.925e-01,1.133e+00
7.975e-01,1.059e+00
8.025e-01,9.864e-01
8.075e-01,9.160e-01
8.125e-01,8.481e-01
8.175e-01,7.828e-01
8.225e-01,7.204e-01
8.275e-01,6.610e-01
8.325e-01,6.047e-01
8.375e-01,5.516e-01
8.425e-01,5.017e-01
8.475e-01,4.550e-01
8.525e-01,4.114e-01
8.575e-01,3.710e-01
8.625e-01,3.336e-01
8.675e-01,2.992e-01
8.725e-01,2.676e-01
8.775e-01,2.387e-01
8.825e-01,2.123e-01
8.875e-01,1.884e-01
8.925e-01,1.667e-01
8.975e-01,1.471e-01
9.025e-01,1.295e-01
9.075e-01,1.137e-01
9.125e-01,9.965e-02
9.175e-01,8.709e-02
9.225e-01,7.592e-02
9.275e-01,6.604e-02
9.325e-01,5.730e-02
9.375e-01,4.961e-02
9.425e-01,4.285e-02
9.475e-01,3.693e-02
9.525e-01,3.176e-02
9.575e-01,2.726e-02
9.625e-01,2.334e-02
9.675e-01,1.994e-02
9.725e-01,1.701e-02
9.775e-01,1.447e-02
9.825e-01,1.229e-02
9.875e-01,1.042e-02
9.925e-01,8.813e-03
9.975e-01,7.442e-03
