transmittance,probability_density
2.500e-03,1.453e-12
7.500e-03,1.656e-06
1.250e-02,1.319e-04
1.750e-02,1.172e-03
2.250e-02,4.250e-03
2.750e-02,9.737e-03
3.250e-02,1.716e-02
3.750e-02,2.579e-02
4.250e-02,3.513e-02
4.750e-02,4.495e-02
5.250e-02,5.511e-02
5.750e-02,6.542e-02
6.250e-02,7.557e-02
6.750e-02,8.520e-02
7.250e-02,9.400e-02
7.750e-02,1.018e-01
8.250e-02,1.085e-01
8.750e-02,1.144e-01
9.250e-02,1.195e-01
9.750e-02,1.241e-01
1.025e-01,1.284e-01
1.075e-01,1.326e-01
1.125e-01,1.367e-01
1.175e-01,1.408e-01
1.225e-01,1.449e-01
1.275e-01,1.489e-01
1.325e-01,1.530e-01
1.375e-01,1.572e-01
1.425e-01,1.615e-01
1.475e-01,1.659e-01
1.525e-01,1.706e-01
1.575e-01,1.755e-01
1.625e-01,1.807e-01
1.675e-01,1.862e-01
1.725e-01,1.919e-01
1.775e-01,1.978e-01
1.825e-01,2.039e-01
1.875e-01,2.101e-01
1.925e-01,2.164e-01
1.975e-01,2.227e-01
2.025e-01,2.291e-01
2.075e-01,2.355e-01
2.125e-01,2.419e-01
2.175e-01,2.482e-01
2.225e-01,2.544e-01
2.275e-01,2.604e-01
2.325e-01,2.664e-01
2.375e-01,2.721e-01
2.425e-01,2.778e-01
2.475e-01,2.834e-01
2.525e-01,2.890e-01
2.575e-01,2.949e-01
2.625e-01,3.010e-01
2.675e-01,3.077e-01
2.725e-01,3.150e-01
2.775e-01,3.231e-01
2.825e-01,3.323e-01
2.875e-01,3.424e-01
2.925e-01,3.536e-01
2.975e-01,3.658e-01
3.025e-01,3.788e-01
3.075e-01,3.926e-01
3.125e-01,4.067e-01
3.175e-01,4.211e-01
3.225e-01,4.353e-01
3.275e-01,4.491e-01
3.325e-01,4.621e-01
3.375e-01,4.742e-01
3.425e-01,4.851e-01
3.475e-01,4.947e-01
3.525e-01,5.031e-01
3.575e-01,5.101e-01
3.625e-01,5.160e-01
3.675e-01,5.209e-01
3.725e-01,5.250e-01
3.775e-01,5.286e-01
3.825e-01,5.320e-01
3.875e-01,5.354e-01
3.925e-01,5.392e-01
3.975e-01,5.436e-01
4.025e-01,5.489e-01
4.075e-01,5.553e-01
4.125e-01,5.628e-01
4.175e-01,5.717e-01
4.225e-01,5.820e-01
4.275e-01,5.937e-01
4.325e-01,6.068e-01
4.375e-01,6.213e-01
4.425e-01,6.370e-01
4.475e-01,6.540e-01
4.525e-01,6.721e-01
4.575e-01,6.912e-01
4.625e-01,7.112e-01
4.675e-01,7.320e-01
4.725e-01,7.535e-01
4.775e-01,7.757e-01
4.825e-01,7.983e-01
4.875e-01,8.215e-01
4.925e-01,8.451e-01
4.975e-01,8.691e-01
5.025e-01,8.935e-01
5.075e-01,9.181e-01
5.125e-01,9.430e-01
5.175e-01,9.682e-01
5.225e-01,9.937e-01
5.275e-01,1.019e+00
5.325e-01,1.045e+00
5.375e-01,1.072e+00
5.425e-01,1.098e+00
5.475e-01,1.124e+00
5.525e-01,1.151e+00
5.575e-01,1.178e+00
5.625e-01,1.206e+00
5.675e-01,1.233e+00
5.725e-01,1.261e+00
5.775e-01,1.289e+00
5.825e-01,1.317e+00
5.875e-01,1.346e+00
5.925e-01,1.375e+00
5.975e-01,1.405e+00
6.025e-01,1.435e+00
6.075e-01,1.466e+00
6.125e-01,1.497e+00
6.175e-01,1.529e+00
6.225e-01,1.562e+00
6.275e-01,1.597e+00
6.325e-01,1.632e+00
6.375e-01,1.669e+00
6.425e-01,1.707e+00
6.475e-01,1.746e+00
6.525e-01,1.788e+00
6.575e-01,1.832e+00
6.625e-01,1.877e+00
6.675e-01,1.925e+00
6.725e-01,1.975e+00
6.775e-01,2.028e+00
6.825e-01,2.084e+00
6.875e-01,2.142e+00
6.925e-01,2.203e+00
6.975e-01,2.267e+00
7.025e-01,2.333e+00
7.075e-01,2.403e+00
7.125e-01,2.474e+00
7.175e-01,2.548e+00
7.225e-01,2.624e+00
7.275e-01,2.701e+00
7.325e-01,2.779e+00
7.375e-01,2.856e+00
7.425e-01,2.933e+00
7.475e-01,3.007e+00
7.525e-01,3.079e+00
7.575e-01,3.145e+00
7.625e-01,3.206e+00
7.675e-01,3.258e+00
7.725e-01,3.302e+00
7.775e-01,3.335e+00
7.825e-01,3.356e+00
7.875e-01,3.364e+00
7.925e-01,3.357e+00
7.975e-01,3.335e+00
8.025e-01,3.297e+00
8.075e-01,3.242e+00
8.125e-01,3.172e+00
8.175e-01,3.086e+00
8.225e-01,2.985e+00
8.275e-01,2.870e+00
8.325e-01,2.743e+00
8.375e-01,2.606e+00
8.425e-01,2.460e+00
8.475e-01,2.308e+00
8.525e-01,2.152e+00
8.575e-01,1.993e+00
8.625e-01,1.834e+00
8.675e-01,1.677e+00
8.725e-01,1.523e+00
8.775e-01,1.375e+00
8.825e-01,1.233e+00
8.875e-01,1.099e+00
8.925e-01,9.727e-01
8.975e-01,8.558e-01
9.025e-01,7.482e-01
9.075e-01,6.500e-01
9.125e-01,5.613e-01
9.175e-01,4.817e-01
9.225e-01,4.109e-01
9.275e-01,3.484e-01
9.325e-01,2.937e-01
9.375e-01,2.462e-01
9.425e-01,2.052e-01
9.475e-01,1.700e-01
9.525e-01,1.401e-01
9.575e-01,1.149e-01
9.625e-01,9.365e-02
9.675e-01,7.596e-02
9.725e-01,6.129e-02
9.775e-01,4.920e-02
9.825e-01,3.931e-02
9.875e-01,3.125e-02
9.925e-01,2.473e-02
9.975e-01,1.948e-02
