transmittance,probability_density
2.500e-03,1.360e-22
7.500e-03,6.136e-12
1.250e-02,2.378e-08
1.750e-02,1.855e-06
2.250e-02,2.754e-05
2.750e-02,1.700e-04
3.250e-02,6.203e-04
3.750e-02,1.611e-03
4.250e-02,3.313e-03
4.750e-02,5.769e-03
5.250e-02,8.893e-03
5.750e-02,1.251e-02
6.250e-02,1.644e-02
6.750e-02,2.052e-02
7.250e-02,2.468e-02
7.750e-02,2.890e-02
8.250e-02,3.324e-02
8.750e-02,3.778e-02
9.250e-02,4.258e-02
9.750e-02,4.766e-02
1.025e-01,5.299e-02
1.075e-01,5.845e-02
1.125e-01,6.392e-02
1.175e-01,6.922e-02
1.225e-01,7.419e-02
1.275e-01,7.870e-02
1.325e-01,8.267e-02
1.375e-01,8.610e-02
1.425e-01,8.903e-02
1.475e-01,9.157e-02
1.525e-01,9.385e-02
1.575e-01,9.601e-02
1.625e-01,9.819e-02
1.675e-01,1.005e-01
1.725e-01,1.030e-01
1.775e-01,1.057e-01
1.825e-01,1.085e-01
1.875e-01,1.115e-01
1.925e-01,1.147e-01
1.975e-01,1.178e-01
2.025e-01,1.210e-01
2.075e-01,1.242e-01
2.125e-01,1.273e-01
2.175e-01,1.305e-01
2.225e-01,1.338e-01
2.275e-01,1.373e-01
2.325e-01,1.410e-01
2.375e-01,1.449e-01
2.425e-01,1.491e-01
2.475e-01,1.537e-01
2.525e-01,1.585e-01
2.575e-01,1.636e-01
2.625e-01,1.689e-01
2.675e-01,1.744e-01
2.725e-01,1.801e-01
2.775e-01,1.858e-01
2.825e-01,1.915e-01
2.875e-01,1.973e-01
2.925e-01,2.031e-01
2.975e-01,2.089e-01
3.025e-01,2.147e-01
3.075e-01,2.205e-01
3.125e-01,2.262e-01
3.175e-01,2.319e-01
3.225e-01,2.376e-01
3.275e-01,2.433e-01
3.325e-01,2.489e-01
3.375e-01,2.544e-01
3.425e-01,2.600e-01
3.475e-01,2.657e-01
3.525e-01,2.715e-01
3.575e-01,2.776e-01
3.625e-01,2.841e-01
3.675e-01,2.912e-01
3.725e-01,2.989e-01
3.775e-01,3.075e-01
3.825e-01,3.169e-01
3.875e-01,3.273e-01
3.925e-01,3.386e-01
3.975e-01,3.508e-01
4.025e-01,3.637e-01
4.075e-01,3.773e-01
4.125e-01,3.912e-01
4.175e-01,4.052e-01
4.225e-01,4.192e-01
4.275e-01,4.329e-01
4.325e-01,4.460e-01
4.375e-01,4.584e-01
4.425e-01,4.700e-01
4.475e-01,4.805e-01
4.525e-01,4.902e-01
4.575e-01,4.988e-01
4.625e-01,5.066e-01
4.675e-01,5.137e-01
4.725e-01,5.203e-01
4.775e-01,5.266e-01
4.825e-01,5.329e-01
4.875e-01,5.393e-01
4.925e-01,5.461e-01
4.975e-01,5.537e-01
5.025e-01,5.621e-01
5.075e-01,5.716e-01
5.125e-01,5.823e-01
5.175e-01,5.943e-01
5.225e-01,6.078e-01
5.275e-01,6.227e-01
5.325e-01,6.392e-01
5.375e-01,6.571e-01
5.425e-01,6.765e-01
5.475e-01,6.973e-01
5.525e-01,7.194e-01
5.575e-01,7.428e-01
5.625e-01,7.674e-01
5.675e-01,7.931e-01
5.725e-01,8.199e-01
5.775e-01,8.478e-01
5.825e-01,8.765e-01
5.875e-01,9.062e-01
5.925e-01,9.367e-01
5.975e-01,9.680e-01
6.025e-01,1.000e+00
6.075e-01,1.033e+00
6.125e-01,1.067e+00
6.175e-01,1.101e+00
6.225e-01,1.136e+00
6.275e-01,1.173e+00
6.325e-01,1.209e+00
6.375e-01,1.247e+00
6.425e-01,1.286e+00
6.475e-01,1.325e+00
6.525e-01,1.365e+00
6.575e-01,1.407e+00
6.625e-01,1.450e+00
6.675e-01,1.493e+00
6.725e-01,1.539e+00
6.775e-01,1.585e+00
6.825e-01,1.633e+00
6.875e-01,1.684e+00
6.925e-01,1.736e+00
6.975e-01,1.790e+00
7.025e-01,1.847e+00
7.075e-01,1.907e+00
7.125e-01,1.970e+00
7.175e-01,2.037e+00
7.225e-01,2.107e+00
7.275e-01,2.182e+00
7.325e-01,2.261e+00
7.375e-01,2.346e+00
7.425e-01,2.436e+00
7.475e-01,2.532e+00
7.525e-01,2.633e+00
7.575e-01,2.741e+00
7.625e-01,2.855e+00
7.675e-01,2.975e+00
7.725e-01,3.101e+00
7.775e-01,3.231e+00
7.825e-01,3.365e+00
7.875e-01,3.501e+00
7.925e-01,3.637e+00
7.975e-01,3.770e+00
8.025e-01,3.898e+00
8.075e-01,4.016e+00
8.125e-01,4.122e+00
8.175e-01,4.211e+00
8.225e-01,4.279e+00
8.275e-01,4.322e+00
8.325e-01,4.337e+00
8.375e-01,4.321e+00
8.425e-01,4.272e+00
8.475e-01,4.190e+00
8.525e-01,4.074e+00
8.575e-01,3.926e+00
8.625e-01,3.748e+00
8.675e-01,3.545e+00
8.725e-01,3.320e+00
8.775e-01,3.079e+00
8.825e-01,2.827e+00
8.875e-01,2.569e+00
8.925e-01,2.311e+00
8.975e-01,2.058e+00
9.025e-01,1.814e+00
9.075e-01,1.582e+00
9.125e-01,1.367e+00
9.175e-01,1.168e+00
9.225e-01,9.892e-01
9.275e-01,8.292e-01
9.325e-01,6.884e-01
9.375e-01,5.660e-01
9.425e-01,4.611e-01
9.475e-01,3.722e-01
9.525e-01,2.977e-01
9.575e-01,2.361e-01
9.625e-01,1.856e-01
9.675e-01,1.447e-01
9.725e-01,1.119e-01
9.775e-01,8.584e-02
9.825e-01,6.536e-02
9.875e-01,4.940e-02
9.925e-01,3.707e-02
9.975e-01,2.763e-02
