transmittance,probability_density
2.500e-03,3.210e-43
7.500e-03,1.140e-23
1.250e-02,9.421e-17
1.750e-02,5.978e-13
2.250e-02,1.683e-10
2.750e-02,8.759e-09
3.250e-02,1.618e-07
3.750e-02,1.504e-06
4.250e-02,8.627e-06
4.750e-02,3.482e-05
5.250e-02,1.078e-04
5.750e-02,2.723e-04
6.250e-02,5.859e-04
6.750e-02,1.109e-03
7.250e-02,1.894e-03
7.750e-02,2.971e-03
8.250e-02,4.346e-03
8.750e-02,5.998e-03
9.250e-02,7.882e-03
9.750e-02,9.939e-03
1.025e-01,1.210e-02
1.075e-01,1.432e-02
1.125e-01,1.653e-02
1.175e-01,1.870e-02
1.225e-01,2.082e-02
1.275e-01,2.292e-02
1.325e-01,2.501e-02
1.375e-01,2.716e-02
1.425e-01,2.944e-02
1.475e-01,3.191e-02
1.525e-01,3.464e-02
1.575e-01,3.765e-02
1.625e-01,4.098e-02
1.675e-01,4.460e-02
1.725e-01,4.847e-02
1.775e-01,5.249e-02
1.825e-01,5.656e-02
1.875e-01,6.056e-02
1.925e-01,6.436e-02
1.975e-01,6.786e-02
2.025e-01,7.095e-02
2.075e-01,7.358e-02
2.125e-01,7.573e-02
2.175e-01,7.743e-02
2.225e-01,7.875e-02
2.275e-01,7.979e-02
2.325e-01,8.067e-02
2.375e-01,8.154e-02
2.425e-01,8.252e-02
2.475e-01,8.372e-02
2.525e-01,8.524e-02
2.575e-01,8.712e-02
2.625e-01,8.937e-02
2.675e-01,9.195e-02
2.725e-01,9.481e-02
2.775e-01,9.787e-02
2.825e-01,1.010e-01
2.875e-01,1.042e-01
2.925e-01,1.074e-01
2.975e-01,1.105e-01
3.025e-01,1.135e-01
3.075e-01,1.165e-01
3.125e-01,1.194e-01
3.175e-01,1.224e-01
3.225e-01,1.255e-01
3.275e-01,1.288e-01
3.325e-01,1.324e-01
3.375e-01,1.363e-01
3.425e-01,1.406e-01
3.475e-01,1.452e-01
3.525e-01,1.502e-01
3.575e-01,1.554e-01
3.625e-01,1.609e-01
3.675e-01,1.666e-01
3.725e-01,1.724e-01
3.775e-01,1.783e-01
3.825e-01,1.842e-01
3.875e-01,1.901e-01
3.925e-01,1.960e-01
3.975e-01,2.019e-01
4.025e-01,2.077e-01
4.075e-01,2.135e-01
4.125e-01,2.193e-01
4.175e-01,2.252e-01
4.225e-01,2.311e-01
4.275e-01,2.371e-01
4.325e-01,2.432e-01
4.375e-01,2.495e-01
4.425e-01,2.560e-01
4.475e-01,2.628e-01
4.525e-01,2.699e-01
4.575e-01,2.775e-01
4.625e-01,2.856e-01
4.675e-01,2.943e-01
4.725e-01,3.037e-01
4.775e-01,3.137e-01
4.825e-01,3.245e-01
4.875e-01,3.360e-01
4.925e-01,3.481e-01
4.975e-01,3.609e-01
5.025e-01,3.742e-01
5.075e-01,3.880e-01
5.125e-01,4.020e-01
5.175e-01,4.161e-01
5.225e-01,4.302e-01
5.275e-01,4.441e-01
5.325e-01,4.577e-01
5.375e-01,4.710e-01
5.425e-01,4.839e-01
5.475e-01,4.964e-01
5.525e-01,5.084e-01
5.575e-01,5.201e-01
5.625e-01,5.316e-01
5.675e-01,5.430e-01
5.725e-01,5.545e-01
5.775e-01,5.662e-01
5.825e-01,5.784e-01
5.875e-01,5.913e-01
5.925e-01,6.050e-01
5.975e-01,6.199e-01
6.025e-01,6.359e-01
6.075e-01,6.534e-01
6.125e-01,6.725e-01
6.175e-01,6.932e-01
6.225e-01,7.157e-01
6.275e-01,7.400e-01
6.325e-01,7.661e-01
6.375e-01,7.942e-01
6.425e-01,8.243e-01
6.475e-01,8.563e-01
6.525e-01,8.902e-01
6.575e-01,9.261e-01
6.625e-01,9.639e-01
6.675e-01,1.004e+00
6.725e-01,1.045e+00
6.775e-01,1.089e+00
6.825e-01,1.135e+00
6.875e-01,1.182e+00
6.925e-01,1.232e+00
6.975e-01,1.283e+00
7.025e-01,1.337e+00
7.075e-01,1.393e+00
7.125e-01,1.452e+00
7.175e-01,1.513e+00
7.225e-01,1.576e+00
7.275e-01,1.643e+00
7.325e-01,1.712e+00
7.375e-01,1.785e+00
7.425e-01,1.862e+00
7.475e-01,1.944e+00
7.525e-01,2.030e+00
7.575e-01,2.121e+00
7.625e-01,2.219e+00
7.675e-01,2.324e+00
7.725e-01,2.436e+00
7.775e-01,2.557e+00
7.825e-01,2.689e+00
7.875e-01,2.831e+00
7.925e-01,2.985e+00
7.975e-01,3.152e+00
8.025e-01,3.332e+00
8.075e-01,3.526e+00
8.125e-01,3.734e+00
8.175e-01,3.955e+00
8.225e-01,4.185e+00
8.275e-01,4.423e+00
8.325e-01,4.661e+00
8.375e-01,4.895e+00
8.425e-01,5.115e+00
8.475e-01,5.312e+00
8.525e-01,5.475e+00
8.575e-01,5.593e+00
8.625e-01,5.656e+00
8.675e-01,5.657e+00
8.725e-01,5.589e+00
8.775e-01,5.450e+00
8.825e-01,5.241e+00
8.875e-01,4.968e+00
8.925e-01,4.638e+00
8.975e-01,4.264e+00
9.025e-01,3.859e+00
9.075e-01,3.437e+00
9.125e-01,3.012e+00
9.175e-01,2.598e+00
9.225e-01,2.205e+00
9.275e-01,1.842e+00
9.325e-01,1.515e+00
9.375e-01,1.227e+00
9.425e-01,9.787e-01
9.475e-01,7.692e-01
9.525e-01,5.960e-01
9.575e-01,4.554e-01
9.625e-01,3.434e-01
9.675e-01,2.556e-01
9.725e-01,1.880e-01
9.775e-01,1.367e-01
9.825e-01,9.827e-02
9.875e-01,6.995e-02
9.925e-01,4.933e-02
9.975e-01,3.448e-02
