transmittance,probability_density
2.500e-03,6.617e-90
7.500e-03,3.450e-51
1.250e-02,4.959e-37
1.750e-02,4.870e-29
2.250e-02,9.250e-24
2.750e-02,5.713e-20
3.250e-02,4.219e-17
3.750e-02,7.495e-15
4.250e-02,4.846e-13
4.750e-02,1.484e-11
5.250e-02,2.568e-10
5.750e-02,2.843e-09
6.250e-02,2.202e-08
6.750e-02,1.276e-07
7.250e-02,5.817e-07
7.750e-02,2.171e-06
8.250e-02,6.842e-06
8.750e-02,1.867e-05
9.250e-02,4.504e-05
9.750e-02,9.768e-05
1.025e-01,1.931e-04
1.075e-01,3.522e-04
1.125e-01,5.986e-04
1.175e-01,9.565e-04
1.225e-01,1.448e-03
1.275e-01,2.088e-03
1.325e-01,2.888e-03
1.375e-01,3.846e-03
1.425e-01,4.956e-03
1.475e-01,6.199e-03
1.525e-01,7.553e-03
1.575e-01,8.988e-03
1.625e-01,1.047e-02
1.675e-01,1.198e-02
1.725e-01,1.348e-02
1.775e-01,1.494e-02
1.825e-01,1.635e-02
1.875e-01,1.770e-02
1.925e-01,1.899e-02
1.975e-01,2.022e-02
2.025e-01,2.141e-02
2.075e-01,2.259e-02
2.125e-01,2.381e-02
2.175e-01,2.510e-02
2.225e-01,2.654e-02
2.275e-01,2.816e-02
2.325e-01,3.004e-02
2.375e-01,3.222e-02
2.425e-01,3.472e-02
2.475e-01,3.757e-02
2.525e-01,4.074e-02
2.575e-01,4.420e-02
2.625e-01,4.789e-02
2.675e-01,5.170e-02
2.725e-01,5.553e-02
2.775e-01,5.926e-02
2.825e-01,6.277e-02
2.875e-01,6.594e-02
2.925e-01,6.868e-02
2.975e-01,7.093e-02
3.025e-01,7.265e-02
3.075e-01,7.386e-02
3.125e-01,7.461e-02
3.175e-01,7.498e-02
3.225e-01,7.511e-02
3.275e-01,7.513e-02
3.325e-01,7.519e-02
3.375e-01,7.545e-02
3.425e-01,7.602e-02
3.475e-01,7.701e-02
3.525e-01,7.849e-02
3.575e-01,8.047e-02
3.625e-01,8.294e-02
3.675e-01,8.584e-02
3.725e-01,8.909e-02
3.775e-01,9.258e-02
3.825e-01,9.622e-02
3.875e-01,9.991e-02
3.925e-01,1.036e-01
3.975e-01,1.071e-01
4.025e-01,1.106e-01
4.075e-01,1.140e-01
4.125e-01,1.173e-01
4.175e-01,1.206e-01
4.225e-01,1.240e-01
4.275e-01,1.276e-01
4.325e-01,1.314e-01
4.375e-01,1.354e-01
4.425e-01,1.398e-01
4.475e-01,1.445e-01
4.525e-01,1.496e-01
4.575e-01,1.550e-01
4.625e-01,1.608e-01
4.675e-01,1.667e-01
4.725e-01,1.730e-01
4.775e-01,1.793e-01
4.825e-01,1.858e-01
4.875e-01,1.924e-01
4.925e-01,1.991e-01
4.975e-01,2.058e-01
5.025e-01,2.126e-01
5.075e-01,2.195e-01
5.125e-01,2.265e-01
5.175e-01,2.336e-01
5.225e-01,2.410e-01
5.275e-01,2.486e-01
5.325e-01,2.566e-01
5.375e-01,2.650e-01
5.425e-01,2.738e-01
5.475e-01,2.831e-01
5.525e-01,2.930e-01
5.575e-01,3.035e-01
5.625e-01,3.147e-01
5.675e-01,3.265e-01
5.725e-01,3.390e-01
5.775e-01,3.522e-01
5.825e-01,3.660e-01
5.875e-01,3.803e-01
5.925e-01,3.952e-01
5.975e-01,4.106e-01
6.025e-01,4.263e-01
6.075e-01,4.424e-01
6.125e-01,4.587e-01
6.175e-01,4.752e-01
6.225e-01,4.919e-01
6.275e-01,5.087e-01
6.325e-01,5.257e-01
6.375e-01,5.430e-01
6.425e-01,5.607e-01
6.475e-01,5.788e-01
6.525e-01,5.975e-01
6.575e-01,6.169e-01
6.625e-01,6.374e-01
6.675e-01,6.590e-01
6.725e-01,6.821e-01
6.775e-01,7.067e-01
6.825e-01,7.333e-01
6.875e-01,7.619e-01
6.925e-01,7.929e-01
6.975e-01,8.264e-01
7.025e-01,8.627e-01
7.075e-01,9.019e-01
7.125e-01,9.442e-01
7.175e-01,9.898e-01
7.225e-01,1.039e+00
7.275e-01,1.092e+00
7.325e-01,1.148e+00
7.375e-01,1.209e+00
7.425e-01,1.273e+00
7.475e-01,1.343e+00
7.525e-01,1.416e+00
7.575e-01,1.495e+00
7.625e-01,1.579e+00
7.675e-01,1.668e+00
7.725e-01,1.764e+00
7.775e-01,1.866e+00
7.825e-01,1.976e+00
7.875e-01,2.094e+00
7.925e-01,2.221e+00
7.975e-01,2.359e+00
8.025e-01,2.509e+00
8.075e-01,2.673e+00
8.125e-01,2.853e+00
8.175e-01,3.051e+00
8.225e-01,3.271e+00
8.275e-01,3.514e+00
8.325e-01,3.785e+00
8.375e-01,4.085e+00
8.425e-01,4.415e+00
8.475e-01,4.775e+00
8.525e-01,5.162e+00
8.575e-01,5.569e+00
8.625e-01,5.983e+00
8.675e-01,6.387e+00
8.725e-01,6.759e+00
8.775e-01,7.071e+00
8.825e-01,7.296e+00
8.875e-01,7.406e+00
8.925e-01,7.382e+00
8.975e-01,7.210e+00
9.025e-01,6.891e+00
9.075e-01,6.436e+00
9.125e-01,5.869e+00
9.175e-01,5.223e+00
9.225e-01,4.533e+00
9.275e-01,3.836e+00
9.325e-01,3.167e+00
9.375e-01,2.550e+00
9.425e-01,2.005e+00
9.475e-01,1.539e+00
9.525e-01,1.155e+00
9.575e-01,8.482e-01
9.625e-01,6.103e-01
9.675e-01,4.307e-01
9.725e-01,2.987e-01
9.775e-01,2.039e-01
9.825e-01,1.371e-01
9.875e-01,9.112e-02
9.925e-01,5.991e-02
9.975e-01,3.904e-02
