transmittance,probability_density
4.155e-04,6.121e-19
1.247e-03,3.271e-13
2.078e-03,1.453e-10
2.909e-03,7.559e-09
3.740e-03,1.365e-07
4.571e-03,1.308e-06
5.402e-03,8.219e-06
6.233e-03,3.823e-05
7.064e-03,1.419e-04
7.895e-03,4.421e-04
8.726e-03,1.198e-03
9.557e-03,2.896e-03
1.039e-02,6.370e-03
1.122e-02,1.294e-02
1.205e-02,2.454e-02
1.288e-02,4.389e-02
1.371e-02,7.457e-02
1.454e-02,1.211e-01
1.537e-02,1.890e-01
1.621e-02,2.847e-01
1.704e-02,4.154e-01
1.787e-02,5.888e-01
1.870e-02,8.132e-01
1.953e-02,1.097e+00
2.036e-02,1.447e+00
2.119e-02,1.872e+00
2.202e-02,2.378e+00
2.285e-02,2.971e+00
2.368e-02,3.652e+00
2.452e-02,4.425e+00
2.535e-02,5.290e+00
2.618e-02,6.243e+00
2.701e-02,7.281e+00
2.784e-02,8.398e+00
2.867e-02,9.586e+00
2.950e-02,1.083e+01
3.033e-02,1.213e+01
3.116e-02,1.346e+01
3.200e-02,1.482e+01
3.283e-02,1.619e+01
3.366e-02,1.754e+01
3.449e-02,1.888e+01
3.532e-02,2.019e+01
3.615e-02,2.144e+01
3.698e-02,2.263e+01
3.781e-02,2.375e+01
3.864e-02,2.479e+01
3.947e-02,2.573e+01
4.031e-02,2.657e+01
4.114e-02,2.731e+01
4.197e-02,2.793e+01
4.280e-02,2.844e+01
4.363e-02,2.883e+01
4.446e-02,2.910e+01
4.529e-02,2.926e+01
4.612e-02,2.930e+01
4.695e-02,2.924e+01
4.779e-02,2.907e+01
4.862e-02,2.880e+01
4.945e-02,2.843e+01
5.028e-02,2.798e+01
5.111e-02,2.745e+01
5.194e-02,2.685e+01
5.277e-02,2.618e+01
5.360e-02,2.546e+01
5.443e-02,2.468e+01
5.526e-02,2.387e+01
5.610e-02,2.302e+01
5.693e-02,2.215e+01
5.776e-02,2.126e+01
5.859e-02,2.035e+01
5.942e-02,1.944e+01
6.025e-02,1.852e+01
6.108e-02,1.761e+01
6.191e-02,1.671e+01
6.274e-02,1.582e+01
6.358e-02,1.495e+01
6.441e-02,1.410e+01
6.524e-02,1.327e+01
6.607e-02,1.246e+01
6.690e-02,1.169e+01
6.773e-02,1.094e+01
6.856e-02,1.022e+01
6.939e-02,9.530e+00
7.022e-02,8.873e+00
7.105e-02,8.248e+00
7.189e-02,7.654e+00
7.272e-02,7.092e+00
7.355e-02,6.560e+00
7.438e-02,6.060e+00
7.521e-02,5.589e+00
7.604e-02,5.147e+00
7.687e-02,4.734e+00
7.770e-02,4.347e+00
7.853e-02,3.987e+00
7.937e-02,3.651e+00
8.020e-02,3.339e+00
8.103e-02,3.050e+00
8.186e-02,2.783e+00
8.269e-02,2.535e+00
8.352e-02,2.307e+00
8.435e-02,2.097e+00
8.518e-02,1.903e+00
8.601e-02,1.726e+00
8.684e-02,1.563e+00
8.768e-02,1.414e+00
8.851e-02,1.278e+00
8.934e-02,1.153e+00
9.017e-02,1.040e+00
9.100e-02,9.367e-01
9.183e-02,8.428e-01
9.266e-02,7.576e-01
9.349e-02,6.802e-01
9.432e-02,6.102e-01
9.516e-02,5.468e-01
9.599e-02,4.895e-01
9.682e-02,4.378e-01
9.765e-02,3.912e-01
9.848e-02,3.492e-01
9.931e-02,3.115e-01
1.001e-01,2.775e-01
1.010e-01,2.471e-01
1.018e-01,2.198e-01
1.026e-01,1.953e-01
1.035e-01,1.734e-01
1.043e-01,1.538e-01
1.051e-01,1.364e-01
1.060e-01,1.208e-01
1.068e-01,1.069e-01
1.076e-01,9.450e-02
1.085e-01,8.349e-02
1.093e-01,7.370e-02
1.101e-01,6.501e-02
1.109e-01,5.730e-02
1.118e-01,5.047e-02
1.126e-01,4.441e-02
1.134e-01,3.906e-02
1.143e-01,3.432e-02
1.151e-01,3.014e-02
1.159e-01,2.644e-02
1.168e-01,2.319e-02
1.176e-01,2.031e-02
1.184e-01,1.779e-02
1.193e-01,1.556e-02
1.201e-01,1.361e-02
1.209e-01,1.189e-02
1.217e-01,1.038e-02
1.226e-01,9.057e-03
1.234e-01,7.898e-03
1.242e-01,6.882e-03
1.251e-01,5.993e-03
1.259e-01,5.215e-03
1.267e-01,4.535e-03
1.276e-01,3.942e-03
1.284e-01,3.424e-03
1.292e-01,2.972e-03
1.301e-01,2.578e-03
1.309e-01,2.235e-03
1.317e-01,1.936e-03
1.326e-01,1.677e-03
1.334e-01,1.451e-03
1.342e-01,1.255e-03
1.350e-01,1.084e-03
1.359e-01,9.367e-04
1.367e-01,8.087e-04
1.375e-01,6.977e-04
1.384e-01,6.016e-04
1.392e-01,5.185e-04
1.400e-01,4.465e-04
1.409e-01,3.844e-04
1.417e-01,3.307e-04
1.425e-01,2.843e-04
1.434e-01,2.443e-04
1.442e-01,2.099e-04
1.450e-01,1.802e-04
1.458e-01,1.546e-04
1.467e-01,1.325e-04
1.475e-01,1.136e-04
1.483e-01,9.729e-05
1.492e-01,8.329e-05
1.500e-01,7.126e-05
1.508e-01,6.095e-05
1.517e-01,5.209e-05
1.525e-01,4.450e-05
1.533e-01,3.800e-05
1.542e-01,3.243e-05
1.550e-01,2.766e-05
1.558e-01,2.358e-05
1.567e-01,2.010e-05
1.575e-01,1.712e-05
1.583e-01,1.457e-05
1.591e-01,1.240e-05
1.600e-01,1.054e-05
1.608e-01,8.961e-06
1.616e-01,7.613e-06
1.625e-01,6.465e-06
1.633e-01,5.487e-06
1.641e-01,4.655e-06
1.650e-01,3.947e-06
1.658e-01,3.345e-06
