transmittance,probability_density
1.782e-01,1.417e-09
1.824e-01,2.601e-09
1.865e-01,4.716e-09
1.906e-01,8.450e-09
1.947e-01,1.497e-08
1.988e-01,2.621e-08
2.030e-01,4.541e-08
2.071e-01,7.783e-08
2.112e-01,1.320e-07
2.153e-01,2.214e-07
2.194e-01,3.674e-07
2.236e-01,6.034e-07
2.277e-01,9.805e-07
2.318e-01,1.576e-06
2.359e-01,2.507e-06
2.400e-01,3.945e-06
2.441e-01,6.141e-06
2.483e-01,9.459e-06
2.524e-01,1.442e-05
2.565e-01,2.174e-05
2.606e-01,3.245e-05
2.647e-01,4.794e-05
2.689e-01,7.010e-05
2.730e-01,1.015e-04
2.771e-01,1.454e-04
2.812e-01,2.064e-04
2.853e-01,2.902e-04
2.895e-01,4.042e-04
2.936e-01,5.577e-04
2.977e-01,7.626e-04
3.018e-01,1.034e-03
3.059e-01,1.389e-03
3.101e-01,1.851e-03
3.142e-01,2.446e-03
3.183e-01,3.206e-03
3.224e-01,4.171e-03
3.265e-01,5.384e-03
3.306e-01,6.900e-03
3.348e-01,8.778e-03
3.389e-01,1.109e-02
3.430e-01,1.392e-02
3.471e-01,1.735e-02
3.512e-01,2.150e-02
3.554e-01,2.647e-02
3.595e-01,3.240e-02
3.636e-01,3.943e-02
3.677e-01,4.772e-02
3.718e-01,5.744e-02
3.760e-01,6.878e-02
3.801e-01,8.193e-02
3.842e-01,9.713e-02
3.883e-01,1.146e-01
3.924e-01,1.346e-01
3.966e-01,1.573e-01
4.007e-01,1.831e-01
4.048e-01,2.123e-01
4.089e-01,2.451e-01
4.130e-01,2.818e-01
4.171e-01,3.227e-01
4.213e-01,3.681e-01
4.254e-01,4.184e-01
4.295e-01,4.738e-01
4.336e-01,5.347e-01
4.377e-01,6.012e-01
4.419e-01,6.737e-01
4.460e-01,7.524e-01
4.501e-01,8.375e-01
4.542e-01,9.291e-01
4.583e-01,1.027e+00
4.625e-01,1.132e+00
4.666e-01,1.244e+00
4.707e-01,1.363e+00
4.748e-01,1.488e+00
4.789e-01,1.620e+00
4.831e-01,1.758e+00
4.872e-01,1.902e+00
4.913e-01,2.052e+00
4.954e-01,2.207e+00
4.995e-01,2.366e+00
5.036e-01,2.530e+00
5.078e-01,2.698e+00
5.119e-01,2.868e+00
5.160e-01,3.040e+00
5.201e-01,3.213e+00
5.242e-01,3.386e+00
5.284e-01,3.558e+00
5.325e-01,3.728e+00
5.366e-01,3.896e+00
5.407e-01,4.059e+00
5.448e-01,4.218e+00
5.490e-01,4.370e+00
5.531e-01,4.515e+00
5.572e-01,4.651e+00
5.613e-01,4.778e+00
5.654e-01,4.894e+00
5.696e-01,4.999e+00
5.737e-01,5.092e+00
5.778e-01,5.172e+00
5.819e-01,5.238e+00
5.860e-01,5.289e+00
5.902e-01,5.326e+00
5.943e-01,5.347e+00
5.984e-01,5.353e+00
6.025e-01,5.343e+00
6.066e-01,5.317e+00
6.107e-01,5.276e+00
6.149e-01,5.219e+00
6.190e-01,5.147e+00
6.231e-01,5.061e+00
6.272e-01,4.961e+00
6.313e-01,4.848e+00
6.355e-01,4.723e+00
6.396e-01,4.586e+00
6.437e-01,4.439e+00
6.478e-01,4.283e+00
6.519e-01,4.119e+00
6.561e-01,3.949e+00
6.602e-01,3.772e+00
6.643e-01,3.591e+00
6.684e-01,3.408e+00
6.725e-01,3.222e+00
6.767e-01,3.035e+00
6.808e-01,2.850e+00
6.849e-01,2.665e+00
6.890e-01,2.484e+00
6.931e-01,2.306e+00
6.972e-01,2.132e+00
7.014e-01,1.964e+00
7.055e-01,1.802e+00
7.096e-01,1.647e+00
7.137e-01,1.498e+00
7.178e-01,1.358e+00
7.220e-01,1.225e+00
7.261e-01,1.100e+00
7.302e-01,9.838e-01
7.343e-01,8.756e-01
7.384e-01,7.756e-01
7.426e-01,6.837e-01
7.467e-01,5.997e-01
7.508e-01,5.234e-01
7.549e-01,4.543e-01
7.590e-01,3.923e-01
7.632e-01,3.368e-01
7.673e-01,2.876e-01
7.714e-01,2.441e-01
7.755e-01,2.059e-01
7.796e-01,1.726e-01
7.837e-01,1.438e-01
7.879e-01,1.190e-01
7.920e-01,9.775e-02
7.961e-01,7.975e-02
8.002e-01,6.459e-02
8.043e-01,5.191e-02
8.085e-01,4.138e-02
8.126e-01,3.272e-02
8.167e-01,2.565e-02
8.208e-01,1.993e-02
8.249e-01,1.534e-02
8.291e-01,1.169e-02
8.332e-01,8.820e-03
8.373e-01,6.584e-03
8.414e-01,4.860e-03
8.455e-01,3.545e-03
8.497e-01,2.554e-03
8.538e-01,1.817e-03
8.579e-01,1.275e-03
8.620e-01,8.814e-04
8.661e-01,6.003e-04
8.702e-01,4.022e-04
8.744e-01,2.649e-04
8.785e-01,1.713e-04
8.826e-01,1.086e-04
8.867e-01,6.747e-05
8.908e-01,4.098e-05
8.950e-01,2.429e-05
8.991e-01,1.403e-05
9.032e-01,7.883e-06
9.073e-01,4.295e-06
9.114e-01,2.264e-06
9.156e-01,1.151e-06
9.197e-01,5.623e-07
9.238e-01,2.629e-07
9.279e-01,1.171e-07
9.320e-01,4.936e-08
9.362e-01,1.958e-08
9.403e-01,7.249e-09
9.444e-01,2.480e-09
9.485e-01,7.743e-10
9.526e-01,2.175e-10
9.567e-01,5.387e-11
9.609e-01,1.148e-11
9.650e-01,2.037e-12
9.691e-01,2.872e-13
9.732e-01,3.015e-14
9.773e-01,2.134e-15
9.815e-01,8.697e-17
9.856e-01,1.544e-18
9.897e-01,6.781e-21
9.938e-01,1.712e-24
9.979e-01,2.887e-32
