transmittance,probability_density
4.909e-01,1.199e-08
4.935e-01,1.572e-08
4.960e-01,2.057e-08
4.986e-01,2.684e-08
5.011e-01,3.494e-08
5.037e-01,4.537e-08
5.062e-01,5.876e-08
5.088e-01,7.593e-08
5.113e-01,9.787e-08
5.139e-01,1.258e-07
5.164e-01,1.614e-07
5.190e-01,2.065e-07
5.215e-01,2.637e-07
5.241e-01,3.358e-07
5.266e-01,4.266e-07
5.292e-01,5.408e-07
5.317e-01,6.839e-07
5.343e-01,8.628e-07
5.368e-01,1.086e-06
5.394e-01,1.364e-06
5.419e-01,1.709e-06
5.445e-01,2.137e-06
5.471e-01,2.665e-06
5.496e-01,3.317e-06
5.522e-01,4.119e-06
5.547e-01,5.103e-06
5.573e-01,6.309e-06
5.598e-01,7.783e-06
5.624e-01,9.580e-06
5.649e-01,1.177e-05
5.675e-01,1.442e-05
5.700e-01,1.764e-05
5.726e-01,2.152e-05
5.751e-01,2.621e-05
5.777e-01,3.185e-05
5.802e-01,3.863e-05
5.828e-01,4.675e-05
5.853e-01,5.646e-05
5.879e-01,6.804e-05
5.904e-01,8.184e-05
5.930e-01,9.824e-05
5.955e-01,1.177e-04
5.981e-01,1.407e-04
6.006e-01,1.679e-04
6.032e-01,2.000e-04
6.057e-01,2.377e-04
6.083e-01,2.820e-04
6.108e-01,3.339e-04
6.134e-01,3.946e-04
6.160e-01,4.655e-04
6.185e-01,5.481e-04
6.211e-01,6.442e-04
6.236e-01,7.558e-04
6.262e-01,8.851e-04
6.287e-01,1.035e-03
6.313e-01,1.208e-03
6.338e-01,1.407e-03
6.364e-01,1.636e-03
6.389e-01,1.900e-03
6.415e-01,2.202e-03
6.440e-01,2.549e-03
6.466e-01,2.945e-03
6.491e-01,3.397e-03
6.517e-01,3.913e-03
6.542e-01,4.500e-03
6.568e-01,5.168e-03
6.593e-01,5.925e-03
6.619e-01,6.785e-03
6.644e-01,7.758e-03
6.670e-01,8.858e-03
6.695e-01,1.010e-02
6.721e-01,1.150e-02
6.746e-01,1.308e-02
6.772e-01,1.486e-02
6.797e-01,1.686e-02
6.823e-01,1.910e-02
6.849e-01,2.162e-02
6.874e-01,2.444e-02
6.900e-01,2.760e-02
6.925e-01,3.114e-02
6.951e-01,3.509e-02
6.976e-01,3.950e-02
7.002e-01,4.442e-02
7.027e-01,4.991e-02
7.053e-01,5.603e-02
7.078e-01,6.284e-02
7.104e-01,7.041e-02
7.129e-01,7.882e-02
7.155e-01,8.817e-02
7.180e-01,9.855e-02
7.206e-01,1.101e-01
7.231e-01,1.228e-01
7.257e-01,1.369e-01
7.282e-01,1.526e-01
7.308e-01,1.699e-01
7.333e-01,1.890e-01
7.359e-01,2.101e-01
7.384e-01,2.334e-01
7.410e-01,2.591e-01
7.435e-01,2.874e-01
7.461e-01,3.186e-01
7.486e-01,3.529e-01
7.512e-01,3.906e-01
7.537e-01,4.320e-01
7.563e-01,4.774e-01
7.589e-01,5.271e-01
7.614e-01,5.816e-01
7.640e-01,6.412e-01
7.665e-01,7.063e-01
7.691e-01,7.773e-01
7.716e-01,8.548e-01
7.742e-01,9.390e-01
7.767e-01,1.031e+00
7.793e-01,1.130e+00
7.818e-01,1.238e+00
7.844e-01,1.354e+00
7.869e-01,1.480e+00
7.895e-01,1.615e+00
7.920e-01,1.761e+00
7.946e-01,1.918e+00
7.971e-01,2.086e+00
7.997e-01,2.266e+00
8.022e-01,2.458e+00
8.048e-01,2.662e+00
8.073e-01,2.879e+00
8.099e-01,3.108e+00
8.124e-01,3.351e+00
8.150e-01,3.606e+00
8.175e-01,3.875e+00
8.201e-01,4.155e+00
8.226e-01,4.448e+00
8.252e-01,4.752e+00
8.278e-01,5.067e+00
8.303e-01,5.391e+00
8.329e-01,5.723e+00
8.354e-01,6.062e+00
8.380e-01,6.406e+00
8.405e-01,6.753e+00
8.431e-01,7.102e+00
8.456e-01,7.448e+00
8.482e-01,7.791e+00
8.507e-01,8.126e+00
8.533e-01,8.451e+00
8.558e-01,8.762e+00
8.584e-01,9.056e+00
8.609e-01,9.330e+00
8.635e-01,9.579e+00
8.660e-01,9.799e+00
8.686e-01,9.989e+00
8.711e-01,1.014e+01
8.737e-01,1.026e+01
8.762e-01,1.033e+01
8.788e-01,1.036e+01
8.813e-01,1.034e+01
8.839e-01,1.028e+01
8.864e-01,1.016e+01
8.890e-01,9.997e+00
8.915e-01,9.781e+00
8.941e-01,9.517e+00
8.967e-01,9.205e+00
8.992e-01,8.849e+00
9.018e-01,8.451e+00
9.043e-01,8.016e+00
9.069e-01,7.550e+00
9.094e-01,7.057e+00
9.120e-01,6.543e+00
9.145e-01,6.016e+00
9.171e-01,5.482e+00
9.196e-01,4.948e+00
9.222e-01,4.422e+00
9.247e-01,3.909e+00
9.273e-01,3.416e+00
9.298e-01,2.949e+00
9.324e-01,2.513e+00
9.349e-01,2.111e+00
9.375e-01,1.746e+00
9.400e-01,1.421e+00
9.426e-01,1.136e+00
9.451e-01,8.906e-01
9.477e-01,6.834e-01
9.502e-01,5.123e-01
9.528e-01,3.742e-01
9.553e-01,2.656e-01
9.579e-01,1.826e-01
9.604e-01,1.211e-01
9.630e-01,7.712e-02
9.656e-01,4.688e-02
9.681e-01,2.701e-02
9.707e-01,1.462e-02
9.732e-01,7.350e-03
9.758e-01,3.383e-03
9.783e-01,1.398e-03
9.809e-01,5.048e-04
9.834e-01,1.533e-04
9.860e-01,3.693e-05
9.885e-01,6.435e-06
9.911e-01,6.885e-07
9.936e-01,3.247e-08
9.962e-01,2.871e-10
9.987e-01,9.092e-15
