transmittance,probability_density
3.226e-01,5.262e-09
3.260e-01,8.052e-09
3.294e-01,1.224e-08
3.328e-01,1.848e-08
3.362e-01,2.771e-08
3.396e-01,4.128e-08
3.430e-01,6.111e-08
3.464e-01,8.987e-08
3.498e-01,1.313e-07
3.532e-01,1.907e-07
3.566e-01,2.752e-07
3.600e-01,3.946e-07
3.634e-01,5.625e-07
3.667e-01,7.970e-07
3.701e-01,1.122e-06
3.735e-01,1.572e-06
3.769e-01,2.188e-06
3.803e-01,3.028e-06
3.837e-01,4.167e-06
3.871e-01,5.702e-06
3.905e-01,7.760e-06
3.939e-01,1.050e-05
3.973e-01,1.414e-05
4.007e-01,1.893e-05
4.041e-01,2.522e-05
4.075e-01,3.342e-05
4.109e-01,4.406e-05
4.143e-01,5.779e-05
4.177e-01,7.544e-05
4.211e-01,9.798e-05
4.245e-01,1.267e-04
4.279e-01,1.629e-04
4.313e-01,2.086e-04
4.347e-01,2.659e-04
4.381e-01,3.374e-04
4.414e-01,4.262e-04
4.448e-01,5.360e-04
4.482e-01,6.711e-04
4.516e-01,8.368e-04
4.550e-01,1.039e-03
4.584e-01,1.285e-03
4.618e-01,1.582e-03
4.652e-01,1.941e-03
4.686e-01,2.372e-03
4.720e-01,2.887e-03
4.754e-01,3.502e-03
4.788e-01,4.231e-03
4.822e-01,5.095e-03
4.856e-01,6.113e-03
4.890e-01,7.309e-03
4.924e-01,8.711e-03
4.958e-01,1.035e-02
4.992e-01,1.225e-02
5.026e-01,1.446e-02
5.060e-01,1.702e-02
5.094e-01,1.996e-02
5.128e-01,2.335e-02
5.161e-01,2.724e-02
5.195e-01,3.169e-02
5.229e-01,3.677e-02
5.263e-01,4.254e-02
5.297e-01,4.910e-02
5.331e-01,5.653e-02
5.365e-01,6.492e-02
5.399e-01,7.438e-02
5.433e-01,8.502e-02
5.467e-01,9.696e-02
5.501e-01,1.103e-01
5.535e-01,1.253e-01
5.569e-01,1.419e-01
5.603e-01,1.605e-01
5.637e-01,1.811e-01
5.671e-01,2.039e-01
5.705e-01,2.291e-01
5.739e-01,2.570e-01
5.773e-01,2.876e-01
5.807e-01,3.214e-01
5.841e-01,3.583e-01
5.875e-01,3.988e-01
5.908e-01,4.431e-01
5.942e-01,4.913e-01
5.976e-01,5.437e-01
6.010e-01,6.006e-01
6.044e-01,6.623e-01
6.078e-01,7.289e-01
6.112e-01,8.008e-01
6.146e-01,8.781e-01
6.180e-01,9.611e-01
6.214e-01,1.050e+00
6.248e-01,1.145e+00
6.282e-01,1.246e+00
6.316e-01,1.354e+00
6.350e-01,1.468e+00
6.384e-01,1.588e+00
6.418e-01,1.716e+00
6.452e-01,1.850e+00
6.486e-01,1.990e+00
6.520e-01,2.137e+00
6.554e-01,2.290e+00
6.588e-01,2.450e+00
6.622e-01,2.615e+00
6.655e-01,2.786e+00
6.689e-01,2.961e+00
6.723e-01,3.142e+00
6.757e-01,3.326e+00
6.791e-01,3.514e+00
6.825e-01,3.704e+00
6.859e-01,3.896e+00
6.893e-01,4.090e+00
6.927e-01,4.283e+00
6.961e-01,4.476e+00
6.995e-01,4.666e+00
7.029e-01,4.853e+00
7.063e-01,5.036e+00
7.097e-01,5.214e+00
7.131e-01,5.385e+00
7.165e-01,5.548e+00
7.199e-01,5.701e+00
7.233e-01,5.845e+00
7.267e-01,5.976e+00
7.301e-01,6.095e+00
7.335e-01,6.199e+00
7.369e-01,6.289e+00
7.402e-01,6.362e+00
7.436e-01,6.418e+00
7.470e-01,6.456e+00
7.504e-01,6.476e+00
7.538e-01,6.477e+00
7.572e-01,6.458e+00
7.606e-01,6.419e+00
7.640e-01,6.361e+00
7.674e-01,6.283e+00
7.708e-01,6.185e+00
7.742e-01,6.069e+00
7.776e-01,5.934e+00
7.810e-01,5.782e+00
7.844e-01,5.614e+00
7.878e-01,5.431e+00
7.912e-01,5.233e+00
7.946e-01,5.024e+00
7.980e-01,4.803e+00
8.014e-01,4.574e+00
8.048e-01,4.337e+00
8.082e-01,4.094e+00
8.116e-01,3.848e+00
8.149e-01,3.600e+00
8.183e-01,3.352e+00
8.217e-01,3.106e+00
8.251e-01,2.863e+00
8.285e-01,2.626e+00
8.319e-01,2.395e+00
8.353e-01,2.173e+00
8.387e-01,1.959e+00
8.421e-01,1.756e+00
8.455e-01,1.564e+00
8.489e-01,1.384e+00
8.523e-01,1.217e+00
8.557e-01,1.062e+00
8.591e-01,9.201e-01
8.625e-01,7.910e-01
8.659e-01,6.746e-01
8.693e-01,5.705e-01
8.727e-01,4.782e-01
8.761e-01,3.971e-01
8.795e-01,3.266e-01
8.829e-01,2.658e-01
8.863e-01,2.140e-01
8.896e-01,1.703e-01
8.930e-01,1.339e-01
8.964e-01,1.039e-01
8.998e-01,7.958e-02
9.032e-01,6.003e-02
9.066e-01,4.459e-02
9.100e-01,3.256e-02
9.134e-01,2.336e-02
9.168e-01,1.643e-02
9.202e-01,1.132e-02
9.236e-01,7.620e-03
9.270e-01,5.005e-03
9.304e-01,3.199e-03
9.338e-01,1.985e-03
9.372e-01,1.192e-03
9.406e-01,6.901e-04
9.440e-01,3.836e-04
9.474e-01,2.037e-04
9.508e-01,1.027e-04
9.542e-01,4.885e-05
9.576e-01,2.170e-05
9.610e-01,8.904e-06
9.643e-01,3.328e-06
9.677e-01,1.112e-06
9.711e-01,3.239e-07
9.745e-01,7.953e-08
9.779e-01,1.567e-08
9.813e-01,2.303e-09
9.847e-01,2.244e-10
9.881e-01,1.178e-11
9.915e-01,2.187e-13
9.949e-01,4.854e-16
9.983e-01,8.496e-22
