transmittance,probability_density
5.483e-01,8.698e-09
5.506e-01,1.104e-08
5.528e-01,1.399e-08
5.551e-01,1.769e-08
5.574e-01,2.234e-08
5.596e-01,2.815e-08
5.619e-01,3.543e-08
5.642e-01,4.450e-08
5.664e-01,5.580e-08
5.687e-01,6.986e-08
5.710e-01,8.731e-08
5.732e-01,1.089e-07
5.755e-01,1.357e-07
5.777e-01,1.687e-07
5.800e-01,2.095e-07
5.823e-01,2.596e-07
5.845e-01,3.212e-07
5.868e-01,3.968e-07
5.891e-01,4.894e-07
5.913e-01,6.025e-07
5.936e-01,7.406e-07
5.959e-01,9.089e-07
5.981e-01,1.114e-06
6.004e-01,1.362e-06
6.027e-01,1.664e-06
6.049e-01,2.029e-06
6.072e-01,2.470e-06
6.094e-01,3.002e-06
6.117e-01,3.642e-06
6.140e-01,4.413e-06
6.162e-01,5.338e-06
6.185e-01,6.447e-06
6.208e-01,7.774e-06
6.230e-01,9.360e-06
6.253e-01,1.125e-05
6.276e-01,1.350e-05
6.298e-01,1.618e-05
6.321e-01,1.936e-05
6.343e-01,2.313e-05
6.366e-01,2.760e-05
6.389e-01,3.287e-05
6.411e-01,3.909e-05
6.434e-01,4.642e-05
6.457e-01,5.504e-05
6.479e-01,6.516e-05
6.502e-01,7.702e-05
6.525e-01,9.092e-05
6.547e-01,1.072e-04
6.570e-01,1.261e-04
6.593e-01,1.482e-04
6.615e-01,1.740e-04
6.638e-01,2.038e-04
6.660e-01,2.385e-04
6.683e-01,2.787e-04
6.706e-01,3.253e-04
6.728e-01,3.790e-04
6.751e-01,4.410e-04
6.774e-01,5.125e-04
6.796e-01,5.947e-04
6.819e-01,6.892e-04
6.842e-01,7.977e-04
6.864e-01,9.220e-04
6.887e-01,1.064e-03
6.910e-01,1.227e-03
6.932e-01,1.412e-03
6.955e-01,1.624e-03
6.977e-01,1.865e-03
7.000e-01,2.140e-03
7.023e-01,2.451e-03
7.045e-01,2.805e-03
7.068e-01,3.205e-03
7.091e-01,3.659e-03
7.113e-01,4.173e-03
7.136e-01,4.752e-03
7.159e-01,5.407e-03
7.181e-01,6.145e-03
7.204e-01,6.976e-03
7.226e-01,7.912e-03
7.249e-01,8.964e-03
7.272e-01,1.015e-02
7.294e-01,1.147e-02
7.317e-01,1.296e-02
7.340e-01,1.463e-02
7.362e-01,1.649e-02
7.385e-01,1.858e-02
7.408e-01,2.092e-02
7.430e-01,2.352e-02
7.453e-01,2.644e-02
7.476e-01,2.969e-02
7.498e-01,3.331e-02
7.521e-01,3.736e-02
7.543e-01,4.186e-02
7.566e-01,4.687e-02
7.589e-01,5.245e-02
7.611e-01,5.866e-02
7.634e-01,6.557e-02
7.657e-01,7.324e-02
7.679e-01,8.176e-02
7.702e-01,9.123e-02
7.725e-01,1.017e-01
7.747e-01,1.134e-01
7.770e-01,1.264e-01
7.793e-01,1.407e-01
7.815e-01,1.566e-01
7.838e-01,1.743e-01
7.860e-01,1.938e-01
7.883e-01,2.154e-01
7.906e-01,2.394e-01
7.928e-01,2.659e-01
7.951e-01,2.952e-01
7.974e-01,3.276e-01
7.996e-01,3.634e-01
8.019e-01,4.030e-01
8.042e-01,4.466e-01
8.064e-01,4.948e-01
8.087e-01,5.479e-01
8.109e-01,6.065e-01
8.132e-01,6.709e-01
8.155e-01,7.418e-01
8.177e-01,8.197e-01
8.200e-01,9.053e-01
8.223e-01,9.991e-01
8.245e-01,1.102e+00
8.268e-01,1.215e+00
8.291e-01,1.338e+00
8.313e-01,1.472e+00
8.336e-01,1.619e+00
8.359e-01,1.778e+00
8.381e-01,1.952e+00
8.404e-01,2.140e+00
8.426e-01,2.344e+00
8.449e-01,2.564e+00
8.472e-01,2.801e+00
8.494e-01,3.057e+00
8.517e-01,3.331e+00
8.540e-01,3.624e+00
8.562e-01,3.937e+00
8.585e-01,4.270e+00
8.608e-01,4.623e+00
8.630e-01,4.996e+00
8.653e-01,5.389e+00
8.676e-01,5.800e+00
8.698e-01,6.229e+00
8.721e-01,6.675e+00
8.743e-01,7.136e+00
8.766e-01,7.609e+00
8.789e-01,8.091e+00
8.811e-01,8.581e+00
8.834e-01,9.072e+00
8.857e-01,9.563e+00
8.879e-01,1.005e+01
8.902e-01,1.052e+01
8.925e-01,1.097e+01
8.947e-01,1.140e+01
8.970e-01,1.180e+01
8.992e-01,1.217e+01
9.015e-01,1.248e+01
9.038e-01,1.275e+01
9.060e-01,1.296e+01
9.083e-01,1.310e+01
9.106e-01,1.318e+01
9.128e-01,1.317e+01
9.151e-01,1.309e+01
9.174e-01,1.293e+01
9.196e-01,1.268e+01
9.219e-01,1.234e+01
9.242e-01,1.193e+01
9.264e-01,1.143e+01
9.287e-01,1.086e+01
9.309e-01,1.022e+01
9.332e-01,9.528e+00
9.355e-01,8.789e+00
9.377e-01,8.016e+00
9.400e-01,7.222e+00
9.423e-01,6.423e+00
9.445e-01,5.632e+00
9.468e-01,4.864e+00
9.491e-01,4.131e+00
9.513e-01,3.445e+00
9.536e-01,2.817e+00
9.559e-01,2.254e+00
9.581e-01,1.760e+00
9.604e-01,1.339e+00
9.626e-01,9.879e-01
9.649e-01,7.050e-01
9.672e-01,4.843e-01
9.694e-01,3.186e-01
9.717e-01,1.993e-01
9.740e-01,1.176e-01
9.762e-01,6.476e-02
9.785e-01,3.283e-02
9.808e-01,1.504e-02
9.830e-01,6.072e-03
9.853e-01,2.083e-03
9.875e-01,5.753e-04
9.898e-01,1.172e-04
9.921e-01,1.509e-05
9.943e-01,9.002e-07
9.966e-01,1.112e-08
9.989e-01,6.848e-13
