transmittance,probability_density
6.620e-01,4.335e-07
6.637e-01,5.091e-07
6.654e-01,5.974e-07
6.671e-01,7.003e-07
6.688e-01,8.201e-07
6.705e-01,9.597e-07
6.722e-01,1.122e-06
6.739e-01,1.310e-06
6.756e-01,1.529e-06
6.773e-01,1.783e-06
6.790e-01,2.077e-06
6.807e-01,2.417e-06
6.824e-01,2.811e-06
6.841e-01,3.265e-06
6.857e-01,3.790e-06
6.874e-01,4.394e-06
6.891e-01,5.091e-06
6.908e-01,5.893e-06
6.925e-01,6.815e-06
6.942e-01,7.875e-06
6.959e-01,9.090e-06
6.976e-01,1.048e-05
6.993e-01,1.208e-05
7.010e-01,1.391e-05
7.027e-01,1.600e-05
7.044e-01,1.838e-05
7.061e-01,2.111e-05
7.078e-01,2.421e-05
7.095e-01,2.775e-05
7.112e-01,3.178e-05
7.129e-01,3.635e-05
7.145e-01,4.155e-05
7.162e-01,4.745e-05
7.179e-01,5.413e-05
7.196e-01,6.171e-05
7.213e-01,7.027e-05
7.230e-01,7.996e-05
7.247e-01,9.090e-05
7.264e-01,1.032e-04
7.281e-01,1.172e-04
7.298e-01,1.328e-04
7.315e-01,1.505e-04
7.332e-01,1.703e-04
7.349e-01,1.925e-04
7.366e-01,2.175e-04
7.383e-01,2.455e-04
7.400e-01,2.768e-04
7.417e-01,3.119e-04
7.433e-01,3.511e-04
7.450e-01,3.948e-04
7.467e-01,4.437e-04
7.484e-01,4.981e-04
7.501e-01,5.587e-04
7.518e-01,6.262e-04
7.535e-01,7.012e-04
7.552e-01,7.845e-04
7.569e-01,8.770e-04
7.586e-01,9.795e-04
7.603e-01,1.093e-03
7.620e-01,1.219e-03
7.637e-01,1.358e-03
7.654e-01,1.511e-03
7.671e-01,1.681e-03
7.688e-01,1.868e-03
7.705e-01,2.075e-03
7.721e-01,2.302e-03
7.738e-01,2.553e-03
7.755e-01,2.828e-03
7.772e-01,3.131e-03
7.789e-01,3.464e-03
7.806e-01,3.829e-03
7.823e-01,4.230e-03
7.840e-01,4.669e-03
7.857e-01,5.151e-03
7.874e-01,5.680e-03
7.891e-01,6.258e-03
7.908e-01,6.891e-03
7.925e-01,7.584e-03
7.942e-01,8.342e-03
7.959e-01,9.171e-03
7.976e-01,1.008e-02
7.993e-01,1.107e-02
8.009e-01,1.215e-02
8.026e-01,1.334e-02
8.043e-01,1.463e-02
8.060e-01,1.605e-02
8.077e-01,1.760e-02
8.094e-01,1.929e-02
8.111e-01,2.114e-02
8.128e-01,2.316e-02
8.145e-01,2.538e-02
8.162e-01,2.781e-02
8.179e-01,3.047e-02
8.196e-01,3.338e-02
8.213e-01,3.657e-02
8.230e-01,4.008e-02
8.247e-01,4.393e-02
8.264e-01,4.816e-02
8.280e-01,5.281e-02
8.297e-01,5.792e-02
8.314e-01,6.356e-02
8.331e-01,6.976e-02
8.348e-01,7.661e-02
8.365e-01,8.417e-02
8.382e-01,9.251e-02
8.399e-01,1.017e-01
8.416e-01,1.119e-01
8.433e-01,1.232e-01
8.450e-01,1.358e-01
8.467e-01,1.496e-01
8.484e-01,1.650e-01
8.501e-01,1.821e-01
8.518e-01,2.010e-01
8.535e-01,2.221e-01
8.552e-01,2.455e-01
8.568e-01,2.715e-01
8.585e-01,3.005e-01
8.602e-01,3.326e-01
8.619e-01,3.684e-01
8.636e-01,4.082e-01
8.653e-01,4.525e-01
8.670e-01,5.018e-01
8.687e-01,5.566e-01
8.704e-01,6.176e-01
8.721e-01,6.853e-01
8.738e-01,7.606e-01
8.755e-01,8.442e-01
8.772e-01,9.371e-01
8.789e-01,1.040e+00
8.806e-01,1.154e+00
8.823e-01,1.281e+00
8.840e-01,1.421e+00
8.856e-01,1.576e+00
8.873e-01,1.746e+00
8.890e-01,1.935e+00
8.907e-01,2.143e+00
8.924e-01,2.371e+00
8.941e-01,2.622e+00
8.958e-01,2.897e+00
8.975e-01,3.199e+00
8.992e-01,3.527e+00
9.009e-01,3.886e+00
9.026e-01,4.275e+00
9.043e-01,4.698e+00
9.060e-01,5.154e+00
9.077e-01,5.647e+00
9.094e-01,6.175e+00
9.111e-01,6.741e+00
9.128e-01,7.345e+00
9.144e-01,7.986e+00
9.161e-01,8.662e+00
9.178e-01,9.374e+00
9.195e-01,1.012e+01
9.212e-01,1.089e+01
9.229e-01,1.169e+01
9.246e-01,1.250e+01
9.263e-01,1.333e+01
9.280e-01,1.416e+01
9.297e-01,1.498e+01
9.314e-01,1.579e+01
9.331e-01,1.657e+01
9.348e-01,1.730e+01
9.365e-01,1.798e+01
9.382e-01,1.858e+01
9.399e-01,1.910e+01
9.416e-01,1.951e+01
9.432e-01,1.979e+01
9.449e-01,1.995e+01
9.466e-01,1.995e+01
9.483e-01,1.980e+01
9.500e-01,1.947e+01
9.517e-01,1.898e+01
9.534e-01,1.831e+01
9.551e-01,1.748e+01
9.568e-01,1.649e+01
9.585e-01,1.536e+01
9.602e-01,1.411e+01
9.619e-01,1.277e+01
9.636e-01,1.137e+01
9.653e-01,9.936e+00
9.670e-01,8.514e+00
9.687e-01,7.137e+00
9.704e-01,5.837e+00
9.720e-01,4.644e+00
9.737e-01,3.583e+00
9.754e-01,2.668e+00
9.771e-01,1.909e+00
9.788e-01,1.303e+00
9.805e-01,8.430e-01
9.822e-01,5.114e-01
9.839e-01,2.872e-01
9.856e-01,1.468e-01
9.873e-01,6.671e-02
9.890e-01,2.604e-02
9.907e-01,8.304e-03
9.924e-01,1.993e-03
9.941e-01,3.118e-04
9.958e-01,2.376e-05
9.975e-01,4.153e-07
9.992e-01,5.086e-11
