transmittance,probability_density
6.935e-01,1.663e-08
6.950e-01,1.977e-08
6.966e-01,2.349e-08
6.981e-01,2.789e-08
6.996e-01,3.309e-08
7.012e-01,3.923e-08
7.027e-01,4.647e-08
7.042e-01,5.501e-08
7.058e-01,6.508e-08
7.073e-01,7.693e-08
7.089e-01,9.088e-08
7.104e-01,1.073e-07
7.119e-01,1.265e-07
7.135e-01,1.492e-07
7.150e-01,1.757e-07
7.165e-01,2.068e-07
7.181e-01,2.433e-07
7.196e-01,2.859e-07
7.211e-01,3.358e-07
7.227e-01,3.942e-07
7.242e-01,4.623e-07
7.258e-01,5.418e-07
7.273e-01,6.346e-07
7.288e-01,7.427e-07
7.304e-01,8.687e-07
7.319e-01,1.015e-06
7.334e-01,1.186e-06
7.350e-01,1.384e-06
7.365e-01,1.614e-06
7.380e-01,1.881e-06
7.396e-01,2.190e-06
7.411e-01,2.549e-06
7.427e-01,2.964e-06
7.442e-01,3.445e-06
7.457e-01,4.000e-06
7.473e-01,4.642e-06
7.488e-01,5.384e-06
7.503e-01,6.239e-06
7.519e-01,7.225e-06
7.534e-01,8.361e-06
7.549e-01,9.669e-06
7.565e-01,1.117e-05
7.580e-01,1.290e-05
7.596e-01,1.489e-05
7.611e-01,1.717e-05
7.626e-01,1.979e-05
7.642e-01,2.279e-05
7.657e-01,2.623e-05
7.672e-01,3.016e-05
7.688e-01,3.466e-05
7.703e-01,3.981e-05
7.718e-01,4.569e-05
7.734e-01,5.240e-05
7.749e-01,6.006e-05
7.765e-01,6.879e-05
7.780e-01,7.873e-05
7.795e-01,9.006e-05
7.811e-01,1.029e-04
7.826e-01,1.176e-04
7.841e-01,1.342e-04
7.857e-01,1.531e-04
7.872e-01,1.746e-04
7.887e-01,1.989e-04
7.903e-01,2.265e-04
7.918e-01,2.577e-04
7.934e-01,2.930e-04
7.949e-01,3.329e-04
7.964e-01,3.781e-04
7.980e-01,4.291e-04
7.995e-01,4.867e-04
8.010e-01,5.517e-04
8.026e-01,6.250e-04
8.041e-01,7.076e-04
8.056e-01,8.007e-04
8.072e-01,9.054e-04
8.087e-01,1.023e-03
8.103e-01,1.156e-03
8.118e-01,1.305e-03
8.133e-01,1.472e-03
8.149e-01,1.660e-03
8.164e-01,1.870e-03
8.179e-01,2.106e-03
8.195e-01,2.371e-03
8.210e-01,2.668e-03
8.226e-01,3.000e-03
8.241e-01,3.372e-03
8.256e-01,3.788e-03
8.272e-01,4.253e-03
8.287e-01,4.773e-03
8.302e-01,5.354e-03
8.318e-01,6.004e-03
8.333e-01,6.728e-03
8.348e-01,7.537e-03
8.364e-01,8.440e-03
8.379e-01,9.446e-03
8.394e-01,1.057e-02
8.410e-01,1.182e-02
8.425e-01,1.321e-02
8.441e-01,1.477e-02
8.456e-01,1.650e-02
8.471e-01,1.843e-02
8.487e-01,2.057e-02
8.502e-01,2.296e-02
8.517e-01,2.562e-02
8.533e-01,2.858e-02
8.548e-01,3.187e-02
8.563e-01,3.553e-02
8.579e-01,3.960e-02
8.594e-01,4.414e-02
8.610e-01,4.918e-02
8.625e-01,5.479e-02
8.640e-01,6.103e-02
8.656e-01,6.797e-02
8.671e-01,7.569e-02
8.686e-01,8.428e-02
8.702e-01,9.384e-02
8.717e-01,1.045e-01
8.732e-01,1.163e-01
8.748e-01,1.295e-01
8.763e-01,1.442e-01
8.779e-01,1.606e-01
8.794e-01,1.788e-01
8.809e-01,1.991e-01
8.825e-01,2.218e-01
8.840e-01,2.470e-01
8.855e-01,2.752e-01
8.871e-01,3.066e-01
8.886e-01,3.417e-01
8.901e-01,3.809e-01
8.917e-01,4.247e-01
8.932e-01,4.736e-01
8.948e-01,5.283e-01
8.963e-01,5.894e-01
8.978e-01,6.579e-01
8.994e-01,7.344e-01
9.009e-01,8.201e-01
9.024e-01,9.161e-01
9.040e-01,1.024e+00
9.055e-01,1.144e+00
9.071e-01,1.279e+00
9.086e-01,1.429e+00
9.101e-01,1.598e+00
9.117e-01,1.788e+00
9.132e-01,1.999e+00
9.147e-01,2.236e+00
9.163e-01,2.501e+00
9.178e-01,2.796e+00
9.193e-01,3.126e+00
9.209e-01,3.493e+00
9.224e-01,3.902e+00
9.240e-01,4.355e+00
9.255e-01,4.858e+00
9.270e-01,5.414e+00
9.286e-01,6.027e+00
9.301e-01,6.701e+00
9.316e-01,7.438e+00
9.332e-01,8.243e+00
9.347e-01,9.117e+00
9.362e-01,1.006e+01
9.378e-01,1.107e+01
9.393e-01,1.216e+01
9.408e-01,1.330e+01
9.424e-01,1.450e+01
9.439e-01,1.575e+01
9.455e-01,1.704e+01
9.470e-01,1.834e+01
9.485e-01,1.964e+01
9.501e-01,2.092e+01
9.516e-01,2.214e+01
9.531e-01,2.328e+01
9.547e-01,2.430e+01
9.562e-01,2.515e+01
9.577e-01,2.581e+01
9.593e-01,2.623e+01
9.608e-01,2.638e+01
9.624e-01,2.623e+01
9.639e-01,2.576e+01
9.654e-01,2.494e+01
9.670e-01,2.378e+01
9.685e-01,2.230e+01
9.700e-01,2.052e+01
9.716e-01,1.850e+01
9.731e-01,1.629e+01
9.747e-01,1.398e+01
9.762e-01,1.165e+01
9.777e-01,9.384e+00
9.793e-01,7.277e+00
9.808e-01,5.398e+00
9.823e-01,3.802e+00
9.839e-01,2.519e+00
9.854e-01,1.550e+00
9.869e-01,8.717e-01
9.885e-01,4.379e-01
9.900e-01,1.903e-01
9.916e-01,6.813e-02
9.931e-01,1.860e-02
9.946e-01,3.373e-03
9.962e-01,3.083e-04
9.977e-01,6.949e-06
9.992e-01,1.428e-09
