transmittance,probability_density
1.343e-03,1.719e+00
4.028e-03,4.669e+00
6.714e-03,6.078e+00
9.400e-03,6.875e+00
1.209e-02,7.402e+00
1.477e-02,7.800e+00
1.746e-02,8.127e+00
2.014e-02,8.411e+00
2.283e-02,8.665e+00
2.551e-02,8.894e+00
2.820e-02,9.098e+00
3.088e-02,9.278e+00
3.357e-02,9.428e+00
3.626e-02,9.546e+00
3.894e-02,9.628e+00
4.163e-02,9.673e+00
4.431e-02,9.678e+00
4.700e-02,9.643e+00
4.968e-02,9.570e+00
5.237e-02,9.460e+00
5.506e-02,9.315e+00
5.774e-02,9.140e+00
6.043e-02,8.937e+00
6.311e-02,8.710e+00
6.580e-02,8.463e+00
6.848e-02,8.200e+00
7.117e-02,7.925e+00
7.386e-02,7.640e+00
7.654e-02,7.348e+00
7.923e-02,7.053e+00
8.191e-02,6.757e+00
8.460e-02,6.462e+00
8.728e-02,6.170e+00
8.997e-02,5.882e+00
9.265e-02,5.600e+00
9.534e-02,5.325e+00
9.803e-02,5.057e+00
1.007e-01,4.799e+00
1.034e-01,4.549e+00
1.061e-01,4.308e+00
1.088e-01,4.077e+00
1.115e-01,3.855e+00
1.141e-01,3.643e+00
1.168e-01,3.441e+00
1.195e-01,3.249e+00
1.222e-01,3.065e+00
1.249e-01,2.891e+00
1.276e-01,2.726e+00
1.303e-01,2.569e+00
1.329e-01,2.420e+00
1.356e-01,2.280e+00
1.383e-01,2.147e+00
1.410e-01,2.022e+00
1.437e-01,1.903e+00
1.464e-01,1.791e+00
1.491e-01,1.686e+00
1.517e-01,1.586e+00
1.544e-01,1.493e+00
1.571e-01,1.405e+00
1.598e-01,1.322e+00
1.625e-01,1.243e+00
1.652e-01,1.170e+00
1.679e-01,1.101e+00
1.705e-01,1.036e+00
1.732e-01,9.744e-01
1.759e-01,9.169e-01
1.786e-01,8.628e-01
1.813e-01,8.119e-01
1.840e-01,7.641e-01
1.867e-01,7.192e-01
1.893e-01,6.770e-01
1.920e-01,6.373e-01
1.947e-01,6.001e-01
1.974e-01,5.650e-01
2.001e-01,5.321e-01
2.028e-01,5.011e-01
2.055e-01,4.720e-01
2.081e-01,4.447e-01
2.108e-01,4.190e-01
2.135e-01,3.948e-01
2.162e-01,3.721e-01
2.189e-01,3.508e-01
2.216e-01,3.307e-01
2.243e-01,3.118e-01
2.269e-01,2.940e-01
2.296e-01,2.773e-01
2.323e-01,2.616e-01
2.350e-01,2.468e-01
2.377e-01,2.329e-01
2.404e-01,2.198e-01
2.431e-01,2.075e-01
2.457e-01,1.959e-01
2.484e-01,1.850e-01
2.511e-01,1.747e-01
2.538e-01,1.650e-01
2.565e-01,1.559e-01
2.592e-01,1.473e-01
2.619e-01,1.392e-01
2.645e-01,1.316e-01
2.672e-01,1.244e-01
2.699e-01,1.176e-01
2.726e-01,1.113e-01
2.753e-01,1.052e-01
2.780e-01,9.957e-02
2.807e-01,9.421e-02
2.833e-01,8.916e-02
2.860e-01,8.440e-02
2.887e-01,7.990e-02
2.914e-01,7.566e-02
2.941e-01,7.165e-02
2.968e-01,6.787e-02
2.994e-01,6.430e-02
3.021e-01,6.092e-02
3.048e-01,5.774e-02
3.075e-01,5.472e-02
3.102e-01,5.188e-02
3.129e-01,4.919e-02
3.156e-01,4.665e-02
3.182e-01,4.425e-02
3.209e-01,4.198e-02
3.236e-01,3.983e-02
3.263e-01,3.779e-02
3.290e-01,3.587e-02
3.317e-01,3.405e-02
3.344e-01,3.233e-02
3.370e-01,3.070e-02
3.397e-01,2.916e-02
3.424e-01,2.770e-02
3.451e-01,2.632e-02
3.478e-01,2.501e-02
3.505e-01,2.376e-02
3.532e-01,2.259e-02
3.558e-01,2.147e-02
3.585e-01,2.042e-02
3.612e-01,1.942e-02
3.639e-01,1.847e-02
3.666e-01,1.757e-02
3.693e-01,1.671e-02
3.720e-01,1.590e-02
3.746e-01,1.514e-02
3.773e-01,1.441e-02
3.800e-01,1.372e-02
3.827e-01,1.306e-02
3.854e-01,1.244e-02
3.881e-01,1.184e-02
3.908e-01,1.128e-02
3.934e-01,1.075e-02
3.961e-01,1.024e-02
3.988e-01,9.760e-03
4.015e-01,9.303e-03
4.042e-01,8.868e-03
4.069e-01,8.455e-03
4.096e-01,8.062e-03
4.122e-01,7.688e-03
4.149e-01,7.333e-03
4.176e-01,6.995e-03
4.203e-01,6.674e-03
4.230e-01,6.368e-03
4.257e-01,6.077e-03
4.284e-01,5.800e-03
4.310e-01,5.537e-03
4.337e-01,5.286e-03
4.364e-01,5.048e-03
4.391e-01,4.820e-03
4.418e-01,4.604e-03
4.445e-01,4.398e-03
4.472e-01,4.202e-03
4.498e-01,4.014e-03
4.525e-01,3.836e-03
4.552e-01,3.666e-03
4.579e-01,3.505e-03
4.606e-01,3.350e-03
4.633e-01,3.203e-03
4.660e-01,3.063e-03
4.686e-01,2.929e-03
4.713e-01,2.802e-03
4.740e-01,2.680e-03
4.767e-01,2.564e-03
4.794e-01,2.453e-03
4.821e-01,2.347e-03
4.848e-01,2.247e-03
4.874e-01,2.150e-03
4.901e-01,2.059e-03
4.928e-01,1.971e-03
4.955e-01,1.887e-03
4.982e-01,1.807e-03
5.009e-01,1.731e-03
5.036e-01,1.658e-03
5.062e-01,1.588e-03
5.089e-01,1.521e-03
5.116e-01,1.458e-03
5.143e-01,1.397e-03
5.170e-01,1.339e-03
5.197e-01,1.283e-03
5.224e-01,1.230e-03
5.250e-01,1.179e-03
5.277e-01,1.131e-03
5.304e-01,1.084e-03
5.331e-01,1.040e-03
5.358e-01,9.974e-04
