transmittance,probability_density
1.148e-03,2.916e+00
3.443e-03,7.013e+00
5.738e-03,8.773e+00
8.033e-03,9.723e+00
1.033e-02,1.034e+01
1.262e-02,1.081e+01
1.492e-02,1.118e+01
1.721e-02,1.150e+01
1.951e-02,1.178e+01
2.180e-02,1.201e+01
2.410e-02,1.220e+01
2.639e-02,1.235e+01
2.869e-02,1.244e+01
3.098e-02,1.247e+01
3.328e-02,1.244e+01
3.557e-02,1.236e+01
3.787e-02,1.222e+01
4.017e-02,1.203e+01
4.246e-02,1.179e+01
4.476e-02,1.151e+01
4.705e-02,1.119e+01
4.935e-02,1.085e+01
5.164e-02,1.048e+01
5.394e-02,1.009e+01
5.623e-02,9.692e+00
5.853e-02,9.285e+00
6.082e-02,8.874e+00
6.312e-02,8.464e+00
6.541e-02,8.058e+00
6.771e-02,7.658e+00
7.000e-02,7.266e+00
7.230e-02,6.885e+00
7.459e-02,6.515e+00
7.689e-02,6.158e+00
7.918e-02,5.814e+00
8.148e-02,5.485e+00
8.377e-02,5.170e+00
8.607e-02,4.869e+00
8.836e-02,4.583e+00
9.066e-02,4.311e+00
9.295e-02,4.053e+00
9.525e-02,3.809e+00
9.754e-02,3.578e+00
9.984e-02,3.359e+00
1.021e-01,3.153e+00
1.044e-01,2.959e+00
1.067e-01,2.777e+00
1.090e-01,2.605e+00
1.113e-01,2.443e+00
1.136e-01,2.291e+00
1.159e-01,2.149e+00
1.182e-01,2.015e+00
1.205e-01,1.889e+00
1.228e-01,1.771e+00
1.251e-01,1.661e+00
1.274e-01,1.557e+00
1.297e-01,1.460e+00
1.320e-01,1.369e+00
1.343e-01,1.284e+00
1.366e-01,1.204e+00
1.389e-01,1.129e+00
1.412e-01,1.059e+00
1.434e-01,9.939e-01
1.457e-01,9.326e-01
1.480e-01,8.751e-01
1.503e-01,8.213e-01
1.526e-01,7.709e-01
1.549e-01,7.237e-01
1.572e-01,6.796e-01
1.595e-01,6.382e-01
1.618e-01,5.994e-01
1.641e-01,5.631e-01
1.664e-01,5.291e-01
1.687e-01,4.972e-01
1.710e-01,4.674e-01
1.733e-01,4.394e-01
1.756e-01,4.132e-01
1.779e-01,3.886e-01
1.802e-01,3.655e-01
1.825e-01,3.439e-01
1.848e-01,3.236e-01
1.871e-01,3.046e-01
1.893e-01,2.868e-01
1.916e-01,2.700e-01
1.939e-01,2.543e-01
1.962e-01,2.396e-01
1.985e-01,2.257e-01
2.008e-01,2.127e-01
2.031e-01,2.005e-01
2.054e-01,1.890e-01
2.077e-01,1.783e-01
2.100e-01,1.681e-01
2.123e-01,1.586e-01
2.146e-01,1.497e-01
2.169e-01,1.412e-01
2.192e-01,1.333e-01
2.215e-01,1.259e-01
2.238e-01,1.189e-01
2.261e-01,1.123e-01
2.284e-01,1.061e-01
2.307e-01,1.002e-01
2.330e-01,9.474e-02
2.353e-01,8.956e-02
2.375e-01,8.468e-02
2.398e-01,8.009e-02
2.421e-01,7.575e-02
2.444e-01,7.167e-02
2.467e-01,6.782e-02
2.490e-01,6.419e-02
2.513e-01,6.076e-02
2.536e-01,5.753e-02
2.559e-01,5.448e-02
2.582e-01,5.161e-02
2.605e-01,4.889e-02
2.628e-01,4.633e-02
2.651e-01,4.391e-02
2.674e-01,4.162e-02
2.697e-01,3.946e-02
2.720e-01,3.742e-02
2.743e-01,3.549e-02
2.766e-01,3.367e-02
2.789e-01,3.195e-02
2.812e-01,3.032e-02
2.835e-01,2.878e-02
2.857e-01,2.732e-02
2.880e-01,2.594e-02
2.903e-01,2.464e-02
2.926e-01,2.340e-02
2.949e-01,2.223e-02
2.972e-01,2.112e-02
2.995e-01,2.007e-02
3.018e-01,1.908e-02
3.041e-01,1.814e-02
3.064e-01,1.725e-02
3.087e-01,1.640e-02
3.110e-01,1.560e-02
3.133e-01,1.484e-02
3.156e-01,1.412e-02
3.179e-01,1.344e-02
3.202e-01,1.279e-02
3.225e-01,1.218e-02
3.248e-01,1.160e-02
3.271e-01,1.104e-02
3.294e-01,1.052e-02
3.316e-01,1.002e-02
3.339e-01,9.545e-03
3.362e-01,9.095e-03
3.385e-01,8.668e-03
3.408e-01,8.262e-03
3.431e-01,7.877e-03
3.454e-01,7.510e-03
3.477e-01,7.162e-03
3.500e-01,6.831e-03
3.523e-01,6.516e-03
3.546e-01,6.217e-03
3.569e-01,5.932e-03
3.592e-01,5.661e-03
3.615e-01,5.403e-03
3.638e-01,5.158e-03
3.661e-01,4.925e-03
3.684e-01,4.703e-03
3.707e-01,4.491e-03
3.730e-01,4.290e-03
3.753e-01,4.098e-03
3.776e-01,3.916e-03
3.798e-01,3.742e-03
3.821e-01,3.576e-03
3.844e-01,3.418e-03
3.867e-01,3.268e-03
3.890e-01,3.124e-03
3.913e-01,2.987e-03
3.936e-01,2.857e-03
3.959e-01,2.733e-03
3.982e-01,2.614e-03
4.005e-01,2.501e-03
4.028e-01,2.393e-03
4.051e-01,2.290e-03
4.074e-01,2.192e-03
4.097e-01,2.098e-03
4.120e-01,2.009e-03
4.143e-01,1.923e-03
4.166e-01,1.842e-03
4.189e-01,1.764e-03
4.212e-01,1.690e-03
4.235e-01,1.619e-03
4.258e-01,1.551e-03
4.280e-01,1.486e-03
4.303e-01,1.424e-03
4.326e-01,1.365e-03
4.349e-01,1.308e-03
4.372e-01,1.254e-03
4.395e-01,1.202e-03
4.418e-01,1.153e-03
4.441e-01,1.106e-03
4.464e-01,1.061e-03
4.487e-01,1.017e-03
4.510e-01,9.759e-04
4.533e-01,9.363e-04
4.556e-01,8.985e-04
4.579e-01,8.622e-04
