transmittance,probability_density
6.969e-04,8.426e+00
2.091e-03,1.688e+01
3.484e-03,1.989e+01
4.878e-03,2.139e+01
6.272e-03,2.231e+01
7.665e-03,2.296e+01
9.059e-03,2.344e+01
1.045e-02,2.380e+01
1.185e-02,2.403e+01
1.324e-02,2.414e+01
1.463e-02,2.411e+01
1.603e-02,2.395e+01
1.742e-02,2.365e+01
1.881e-02,2.322e+01
2.021e-02,2.268e+01
2.160e-02,2.204e+01
2.300e-02,2.131e+01
2.439e-02,2.053e+01
2.578e-02,1.969e+01
2.718e-02,1.882e+01
2.857e-02,1.794e+01
2.996e-02,1.704e+01
3.136e-02,1.616e+01
3.275e-02,1.528e+01
3.415e-02,1.442e+01
3.554e-02,1.358e+01
3.693e-02,1.278e+01
3.833e-02,1.200e+01
3.972e-02,1.126e+01
4.111e-02,1.055e+01
4.251e-02,9.883e+00
4.390e-02,9.246e+00
4.530e-02,8.645e+00
4.669e-02,8.078e+00
4.808e-02,7.544e+00
4.948e-02,7.043e+00
5.087e-02,6.572e+00
5.226e-02,6.132e+00
5.366e-02,5.719e+00
5.505e-02,5.334e+00
5.644e-02,4.973e+00
5.784e-02,4.637e+00
5.923e-02,4.323e+00
6.063e-02,4.031e+00
6.202e-02,3.758e+00
6.341e-02,3.504e+00
6.481e-02,3.267e+00
6.620e-02,3.047e+00
6.759e-02,2.842e+00
6.899e-02,2.651e+00
7.038e-02,2.473e+00
7.178e-02,2.307e+00
7.317e-02,2.153e+00
7.456e-02,2.010e+00
7.596e-02,1.877e+00
7.735e-02,1.752e+00
7.874e-02,1.637e+00
8.014e-02,1.529e+00
8.153e-02,1.429e+00
8.293e-02,1.336e+00
8.432e-02,1.249e+00
8.571e-02,1.168e+00
8.711e-02,1.092e+00
8.850e-02,1.022e+00
8.989e-02,9.566e-01
9.129e-02,8.955e-01
9.268e-02,8.386e-01
9.407e-02,7.855e-01
9.547e-02,7.360e-01
9.686e-02,6.897e-01
9.826e-02,6.466e-01
9.965e-02,6.063e-01
1.010e-01,5.687e-01
1.024e-01,5.336e-01
1.038e-01,5.008e-01
1.052e-01,4.701e-01
1.066e-01,4.414e-01
1.080e-01,4.146e-01
1.094e-01,3.896e-01
1.108e-01,3.661e-01
1.122e-01,3.442e-01
1.136e-01,3.236e-01
1.150e-01,3.044e-01
1.164e-01,2.864e-01
1.178e-01,2.695e-01
1.192e-01,2.537e-01
1.206e-01,2.389e-01
1.219e-01,2.250e-01
1.233e-01,2.119e-01
1.247e-01,1.997e-01
1.261e-01,1.883e-01
1.275e-01,1.775e-01
1.289e-01,1.674e-01
1.303e-01,1.579e-01
1.317e-01,1.490e-01
1.331e-01,1.406e-01
1.345e-01,1.327e-01
1.359e-01,1.253e-01
1.373e-01,1.184e-01
1.387e-01,1.118e-01
1.401e-01,1.057e-01
1.415e-01,9.990e-02
1.429e-01,9.445e-02
1.442e-01,8.931e-02
1.456e-01,8.448e-02
1.470e-01,7.992e-02
1.484e-01,7.563e-02
1.498e-01,7.159e-02
1.512e-01,6.778e-02
1.526e-01,6.418e-02
1.540e-01,6.079e-02
1.554e-01,5.760e-02
1.568e-01,5.458e-02
1.582e-01,5.173e-02
1.596e-01,4.904e-02
1.610e-01,4.650e-02
1.624e-01,4.410e-02
1.638e-01,4.184e-02
1.652e-01,3.970e-02
1.665e-01,3.768e-02
1.679e-01,3.576e-02
1.693e-01,3.395e-02
1.707e-01,3.224e-02
1.721e-01,3.063e-02
1.735e-01,2.910e-02
1.749e-01,2.765e-02
1.763e-01,2.628e-02
1.777e-01,2.498e-02
1.791e-01,2.375e-02
1.805e-01,2.258e-02
1.819e-01,2.148e-02
1.833e-01,2.043e-02
1.847e-01,1.944e-02
1.861e-01,1.850e-02
1.875e-01,1.761e-02
1.888e-01,1.677e-02
1.902e-01,1.597e-02
1.916e-01,1.521e-02
1.930e-01,1.449e-02
1.944e-01,1.380e-02
1.958e-01,1.315e-02
1.972e-01,1.253e-02
1.986e-01,1.195e-02
2.000e-01,1.139e-02
2.014e-01,1.086e-02
2.028e-01,1.036e-02
2.042e-01,9.882e-03
2.056e-01,9.428e-03
2.070e-01,8.996e-03
2.084e-01,8.586e-03
2.098e-01,8.195e-03
2.111e-01,7.824e-03
2.125e-01,7.471e-03
2.139e-01,7.135e-03
2.153e-01,6.815e-03
2.167e-01,6.510e-03
2.181e-01,6.220e-03
2.195e-01,5.944e-03
2.209e-01,5.681e-03
2.223e-01,5.430e-03
2.237e-01,5.192e-03
2.251e-01,4.964e-03
2.265e-01,4.748e-03
2.279e-01,4.541e-03
2.293e-01,4.344e-03
2.307e-01,4.156e-03
2.321e-01,3.977e-03
2.334e-01,3.806e-03
2.348e-01,3.643e-03
2.362e-01,3.488e-03
2.376e-01,3.339e-03
2.390e-01,3.198e-03
2.404e-01,3.062e-03
2.418e-01,2.933e-03
2.432e-01,2.810e-03
2.446e-01,2.692e-03
2.460e-01,2.580e-03
2.474e-01,2.473e-03
2.488e-01,2.370e-03
2.502e-01,2.272e-03
2.516e-01,2.178e-03
2.530e-01,2.089e-03
2.544e-01,2.003e-03
2.557e-01,1.921e-03
2.571e-01,1.843e-03
2.585e-01,1.768e-03
2.599e-01,1.697e-03
2.613e-01,1.628e-03
2.627e-01,1.563e-03
2.641e-01,1.500e-03
2.655e-01,1.440e-03
2.669e-01,1.382e-03
2.683e-01,1.327e-03
2.697e-01,1.275e-03
2.711e-01,1.224e-03
2.725e-01,1.176e-03
2.739e-01,1.130e-03
2.753e-01,1.086e-03
2.766e-01,1.043e-03
2.780e-01,1.003e-03
