transmittance,probability_density
1.224e-03,8.943e-01
3.672e-03,2.293e+00
6.120e-03,3.360e+00
8.568e-03,4.285e+00
1.102e-02,5.054e+00
1.346e-02,5.681e+00
1.591e-02,6.200e+00
1.836e-02,6.644e+00
2.081e-02,7.042e+00
2.326e-02,7.413e+00
2.570e-02,7.766e+00
2.815e-02,8.104e+00
3.060e-02,8.424e+00
3.305e-02,8.721e+00
3.550e-02,8.990e+00
3.794e-02,9.224e+00
4.039e-02,9.420e+00
4.284e-02,9.574e+00
4.529e-02,9.683e+00
4.774e-02,9.748e+00
5.019e-02,9.769e+00
5.263e-02,9.747e+00
5.508e-02,9.686e+00
5.753e-02,9.587e+00
5.998e-02,9.455e+00
6.243e-02,9.293e+00
6.487e-02,9.106e+00
6.732e-02,8.896e+00
6.977e-02,8.667e+00
7.222e-02,8.423e+00
7.467e-02,8.168e+00
7.711e-02,7.903e+00
7.956e-02,7.631e+00
8.201e-02,7.356e+00
8.446e-02,7.079e+00
8.691e-02,6.802e+00
8.935e-02,6.527e+00
9.180e-02,6.254e+00
9.425e-02,5.986e+00
9.670e-02,5.723e+00
9.915e-02,5.467e+00
1.016e-01,5.217e+00
1.040e-01,4.974e+00
1.065e-01,4.739e+00
1.089e-01,4.512e+00
1.114e-01,4.293e+00
1.138e-01,4.082e+00
1.163e-01,3.880e+00
1.187e-01,3.685e+00
1.212e-01,3.499e+00
1.236e-01,3.321e+00
1.261e-01,3.151e+00
1.285e-01,2.989e+00
1.310e-01,2.834e+00
1.334e-01,2.687e+00
1.359e-01,2.546e+00
1.383e-01,2.413e+00
1.408e-01,2.286e+00
1.432e-01,2.165e+00
1.457e-01,2.051e+00
1.481e-01,1.942e+00
1.506e-01,1.839e+00
1.530e-01,1.741e+00
1.555e-01,1.648e+00
1.579e-01,1.561e+00
1.603e-01,1.477e+00
1.628e-01,1.399e+00
1.652e-01,1.324e+00
1.677e-01,1.253e+00
1.701e-01,1.186e+00
1.726e-01,1.123e+00
1.750e-01,1.063e+00
1.775e-01,1.007e+00
1.799e-01,9.531e-01
1.824e-01,9.025e-01
1.848e-01,8.545e-01
1.873e-01,8.092e-01
1.897e-01,7.663e-01
1.922e-01,7.258e-01
1.946e-01,6.874e-01
1.971e-01,6.512e-01
1.995e-01,6.169e-01
2.020e-01,5.845e-01
2.044e-01,5.538e-01
2.069e-01,5.248e-01
2.093e-01,4.974e-01
2.118e-01,4.714e-01
2.142e-01,4.469e-01
2.167e-01,4.237e-01
2.191e-01,4.017e-01
2.215e-01,3.810e-01
2.240e-01,3.613e-01
2.264e-01,3.427e-01
2.289e-01,3.251e-01
2.313e-01,3.085e-01
2.338e-01,2.927e-01
2.362e-01,2.778e-01
2.387e-01,2.636e-01
2.411e-01,2.503e-01
2.436e-01,2.376e-01
2.460e-01,2.256e-01
2.485e-01,2.143e-01
2.509e-01,2.035e-01
2.534e-01,1.933e-01
2.558e-01,1.837e-01
2.583e-01,1.745e-01
2.607e-01,1.659e-01
2.632e-01,1.576e-01
2.656e-01,1.498e-01
2.681e-01,1.425e-01
2.705e-01,1.355e-01
2.730e-01,1.288e-01
2.754e-01,1.225e-01
2.779e-01,1.166e-01
2.803e-01,1.109e-01
2.827e-01,1.055e-01
2.852e-01,1.004e-01
2.876e-01,9.559e-02
2.901e-01,9.100e-02
2.925e-01,8.664e-02
2.950e-01,8.250e-02
2.974e-01,7.857e-02
2.999e-01,7.484e-02
3.023e-01,7.129e-02
3.048e-01,6.793e-02
3.072e-01,6.473e-02
3.097e-01,6.169e-02
3.121e-01,5.880e-02
3.146e-01,5.605e-02
3.170e-01,5.344e-02
3.195e-01,5.096e-02
3.219e-01,4.860e-02
3.244e-01,4.635e-02
3.268e-01,4.422e-02
3.293e-01,4.219e-02
3.317e-01,4.026e-02
3.342e-01,3.842e-02
3.366e-01,3.667e-02
3.391e-01,3.501e-02
3.415e-01,3.342e-02
3.440e-01,3.191e-02
3.464e-01,3.048e-02
3.488e-01,2.911e-02
3.513e-01,2.780e-02
3.537e-01,2.656e-02
3.562e-01,2.538e-02
3.586e-01,2.425e-02
3.611e-01,2.318e-02
3.635e-01,2.216e-02
3.660e-01,2.118e-02
3.684e-01,2.025e-02
3.709e-01,1.936e-02
3.733e-01,1.852e-02
3.758e-01,1.771e-02
3.782e-01,1.694e-02
3.807e-01,1.621e-02
3.831e-01,1.551e-02
3.856e-01,1.484e-02
3.880e-01,1.421e-02
3.905e-01,1.360e-02
3.929e-01,1.302e-02
3.954e-01,1.246e-02
3.978e-01,1.193e-02
4.003e-01,1.143e-02
4.027e-01,1.094e-02
4.052e-01,1.048e-02
4.076e-01,1.004e-02
4.100e-01,9.621e-03
4.125e-01,9.219e-03
4.149e-01,8.835e-03
4.174e-01,8.467e-03
4.198e-01,8.116e-03
4.223e-01,7.781e-03
4.247e-01,7.460e-03
4.272e-01,7.153e-03
4.296e-01,6.859e-03
4.321e-01,6.578e-03
4.345e-01,6.310e-03
4.370e-01,6.053e-03
4.394e-01,5.807e-03
4.419e-01,5.572e-03
4.443e-01,5.347e-03
4.468e-01,5.132e-03
4.492e-01,4.925e-03
4.517e-01,4.728e-03
4.541e-01,4.539e-03
4.566e-01,4.358e-03
4.590e-01,4.184e-03
4.615e-01,4.018e-03
4.639e-01,3.859e-03
4.664e-01,3.707e-03
4.688e-01,3.561e-03
4.712e-01,3.421e-03
4.737e-01,3.287e-03
4.761e-01,3.159e-03
4.786e-01,3.036e-03
4.810e-01,2.917e-03
4.835e-01,2.804e-03
4.859e-01,2.696e-03
4.884e-01,2.592e-03
