transmittance,probability_density
1.815e-03,3.185e-01
5.446e-03,1.428e+00
9.076e-03,2.139e+00
1.271e-02,2.621e+00
1.634e-02,2.968e+00
1.997e-02,3.231e+00
2.360e-02,3.444e+00
2.723e-02,3.626e+00
3.086e-02,3.792e+00
3.449e-02,3.947e+00
3.812e-02,4.096e+00
4.175e-02,4.240e+00
4.538e-02,4.381e+00
4.901e-02,4.519e+00
5.264e-02,4.652e+00
5.627e-02,4.780e+00
5.990e-02,4.903e+00
6.353e-02,5.018e+00
6.717e-02,5.124e+00
7.080e-02,5.220e+00
7.443e-02,5.305e+00
7.806e-02,5.377e+00
8.169e-02,5.435e+00
8.532e-02,5.478e+00
8.895e-02,5.507e+00
9.258e-02,5.520e+00
9.621e-02,5.517e+00
9.984e-02,5.500e+00
1.035e-01,5.468e+00
1.071e-01,5.422e+00
1.107e-01,5.363e+00
1.144e-01,5.292e+00
1.180e-01,5.209e+00
1.216e-01,5.116e+00
1.253e-01,5.014e+00
1.289e-01,4.905e+00
1.325e-01,4.788e+00
1.361e-01,4.665e+00
1.398e-01,4.538e+00
1.434e-01,4.406e+00
1.470e-01,4.272e+00
1.507e-01,4.136e+00
1.543e-01,3.998e+00
1.579e-01,3.860e+00
1.616e-01,3.722e+00
1.652e-01,3.585e+00
1.688e-01,3.449e+00
1.725e-01,3.315e+00
1.761e-01,3.183e+00
1.797e-01,3.053e+00
1.833e-01,2.926e+00
1.870e-01,2.802e+00
1.906e-01,2.681e+00
1.942e-01,2.564e+00
1.979e-01,2.450e+00
2.015e-01,2.340e+00
2.051e-01,2.233e+00
2.088e-01,2.130e+00
2.124e-01,2.031e+00
2.160e-01,1.935e+00
2.196e-01,1.843e+00
2.233e-01,1.755e+00
2.269e-01,1.670e+00
2.305e-01,1.589e+00
2.342e-01,1.511e+00
2.378e-01,1.437e+00
2.414e-01,1.365e+00
2.451e-01,1.297e+00
2.487e-01,1.232e+00
2.523e-01,1.170e+00
2.560e-01,1.111e+00
2.596e-01,1.055e+00
2.632e-01,1.001e+00
2.668e-01,9.503e-01
2.705e-01,9.017e-01
2.741e-01,8.554e-01
2.777e-01,8.114e-01
2.814e-01,7.696e-01
2.850e-01,7.299e-01
2.886e-01,6.921e-01
2.923e-01,6.563e-01
2.959e-01,6.223e-01
2.995e-01,5.900e-01
3.032e-01,5.593e-01
3.068e-01,5.302e-01
3.104e-01,5.026e-01
3.140e-01,4.764e-01
3.177e-01,4.516e-01
3.213e-01,4.281e-01
3.249e-01,4.058e-01
3.286e-01,3.846e-01
3.322e-01,3.646e-01
3.358e-01,3.456e-01
3.395e-01,3.276e-01
3.431e-01,3.105e-01
3.467e-01,2.944e-01
3.503e-01,2.791e-01
3.540e-01,2.645e-01
3.576e-01,2.508e-01
3.612e-01,2.378e-01
3.649e-01,2.254e-01
3.685e-01,2.138e-01
3.721e-01,2.027e-01
3.758e-01,1.922e-01
3.794e-01,1.823e-01
3.830e-01,1.729e-01
3.867e-01,1.640e-01
3.903e-01,1.555e-01
3.939e-01,1.475e-01
3.975e-01,1.399e-01
4.012e-01,1.328e-01
4.048e-01,1.260e-01
4.084e-01,1.195e-01
4.121e-01,1.134e-01
4.157e-01,1.076e-01
4.193e-01,1.021e-01
4.230e-01,9.696e-02
4.266e-01,9.203e-02
4.302e-01,8.737e-02
4.339e-01,8.295e-02
4.375e-01,7.876e-02
4.411e-01,7.479e-02
4.447e-01,7.102e-02
4.484e-01,6.745e-02
4.520e-01,6.407e-02
4.556e-01,6.086e-02
4.593e-01,5.782e-02
4.629e-01,5.494e-02
4.665e-01,5.220e-02
4.702e-01,4.960e-02
4.738e-01,4.714e-02
4.774e-01,4.481e-02
4.810e-01,4.259e-02
4.847e-01,4.049e-02
4.883e-01,3.850e-02
4.919e-01,3.661e-02
4.956e-01,3.481e-02
4.992e-01,3.311e-02
5.028e-01,3.149e-02
5.065e-01,2.995e-02
5.101e-01,2.850e-02
5.137e-01,2.711e-02
5.174e-01,2.580e-02
5.210e-01,2.455e-02
5.246e-01,2.337e-02
5.282e-01,2.224e-02
5.319e-01,2.117e-02
5.355e-01,2.015e-02
5.391e-01,1.919e-02
5.428e-01,1.827e-02
5.464e-01,1.740e-02
5.500e-01,1.657e-02
5.537e-01,1.579e-02
5.573e-01,1.504e-02
5.609e-01,1.433e-02
5.646e-01,1.365e-02
5.682e-01,1.301e-02
5.718e-01,1.240e-02
5.754e-01,1.182e-02
5.791e-01,1.126e-02
5.827e-01,1.074e-02
5.863e-01,1.024e-02
5.900e-01,9.760e-03
5.936e-01,9.307e-03
5.972e-01,8.876e-03
6.009e-01,8.465e-03
6.045e-01,8.075e-03
6.081e-01,7.703e-03
6.117e-01,7.350e-03
6.154e-01,7.013e-03
6.190e-01,6.692e-03
6.226e-01,6.387e-03
6.263e-01,6.096e-03
6.299e-01,5.819e-03
6.335e-01,5.555e-03
6.372e-01,5.303e-03
6.408e-01,5.064e-03
6.444e-01,4.836e-03
6.481e-01,4.618e-03
6.517e-01,4.411e-03
6.553e-01,4.213e-03
6.589e-01,4.025e-03
6.626e-01,3.846e-03
6.662e-01,3.674e-03
6.698e-01,3.511e-03
6.735e-01,3.356e-03
6.771e-01,3.207e-03
6.807e-01,3.066e-03
6.844e-01,2.931e-03
6.880e-01,2.802e-03
6.916e-01,2.679e-03
6.953e-01,2.562e-03
6.989e-01,2.450e-03
7.025e-01,2.343e-03
7.061e-01,2.241e-03
7.098e-01,2.144e-03
7.134e-01,2.051e-03
7.170e-01,1.962e-03
7.207e-01,1.878e-03
7.243e-01,1.797e-03
