transmittance,probability_density
1.928e-03,5.836e-02
5.785e-03,3.291e-01
9.642e-03,5.141e-01
1.350e-02,6.680e-01
1.735e-02,8.203e-01
2.121e-02,9.770e-01
2.507e-02,1.137e+00
2.892e-02,1.298e+00
3.278e-02,1.456e+00
3.664e-02,1.610e+00
4.049e-02,1.757e+00
4.435e-02,1.898e+00
4.821e-02,2.031e+00
5.206e-02,2.158e+00
5.592e-02,2.280e+00
5.978e-02,2.397e+00
6.363e-02,2.513e+00
6.749e-02,2.627e+00
7.135e-02,2.741e+00
7.520e-02,2.855e+00
7.906e-02,2.970e+00
8.292e-02,3.086e+00
8.677e-02,3.202e+00
9.063e-02,3.318e+00
9.449e-02,3.433e+00
9.834e-02,3.546e+00
1.022e-01,3.655e+00
1.061e-01,3.761e+00
1.099e-01,3.861e+00
1.138e-01,3.954e+00
1.176e-01,4.041e+00
1.215e-01,4.119e+00
1.253e-01,4.188e+00
1.292e-01,4.247e+00
1.331e-01,4.297e+00
1.369e-01,4.337e+00
1.408e-01,4.367e+00
1.446e-01,4.386e+00
1.485e-01,4.395e+00
1.523e-01,4.394e+00
1.562e-01,4.384e+00
1.600e-01,4.364e+00
1.639e-01,4.335e+00
1.678e-01,4.299e+00
1.716e-01,4.254e+00
1.755e-01,4.202e+00
1.793e-01,4.144e+00
1.832e-01,4.080e+00
1.870e-01,4.010e+00
1.909e-01,3.936e+00
1.948e-01,3.857e+00
1.986e-01,3.775e+00
2.025e-01,3.689e+00
2.063e-01,3.601e+00
2.102e-01,3.511e+00
2.140e-01,3.419e+00
2.179e-01,3.325e+00
2.218e-01,3.231e+00
2.256e-01,3.137e+00
2.295e-01,3.042e+00
2.333e-01,2.947e+00
2.372e-01,2.853e+00
2.410e-01,2.760e+00
2.449e-01,2.668e+00
2.488e-01,2.576e+00
2.526e-01,2.487e+00
2.565e-01,2.398e+00
2.603e-01,2.311e+00
2.642e-01,2.226e+00
2.680e-01,2.143e+00
2.719e-01,2.062e+00
2.757e-01,1.983e+00
2.796e-01,1.906e+00
2.835e-01,1.831e+00
2.873e-01,1.758e+00
2.912e-01,1.688e+00
2.950e-01,1.619e+00
2.989e-01,1.553e+00
3.027e-01,1.489e+00
3.066e-01,1.427e+00
3.105e-01,1.367e+00
3.143e-01,1.309e+00
3.182e-01,1.253e+00
3.220e-01,1.199e+00
3.259e-01,1.148e+00
3.297e-01,1.098e+00
3.336e-01,1.050e+00
3.375e-01,1.004e+00
3.413e-01,9.596e-01
3.452e-01,9.171e-01
3.490e-01,8.763e-01
3.529e-01,8.371e-01
3.567e-01,7.996e-01
3.606e-01,7.636e-01
3.644e-01,7.291e-01
3.683e-01,6.961e-01
3.722e-01,6.645e-01
3.760e-01,6.342e-01
3.799e-01,6.052e-01
3.837e-01,5.775e-01
3.876e-01,5.510e-01
3.914e-01,5.256e-01
3.953e-01,5.014e-01
3.992e-01,4.782e-01
4.030e-01,4.561e-01
4.069e-01,4.350e-01
4.107e-01,4.148e-01
4.146e-01,3.955e-01
4.184e-01,3.771e-01
4.223e-01,3.595e-01
4.262e-01,3.427e-01
4.300e-01,3.267e-01
4.339e-01,3.115e-01
4.377e-01,2.969e-01
4.416e-01,2.830e-01
4.454e-01,2.697e-01
4.493e-01,2.571e-01
4.532e-01,2.450e-01
4.570e-01,2.336e-01
4.609e-01,2.226e-01
4.647e-01,2.121e-01
4.686e-01,2.022e-01
4.724e-01,1.927e-01
4.763e-01,1.837e-01
4.801e-01,1.750e-01
4.840e-01,1.668e-01
4.879e-01,1.590e-01
4.917e-01,1.515e-01
4.956e-01,1.444e-01
4.994e-01,1.376e-01
5.033e-01,1.312e-01
5.071e-01,1.250e-01
5.110e-01,1.192e-01
5.149e-01,1.136e-01
5.187e-01,1.083e-01
5.226e-01,1.032e-01
5.264e-01,9.838e-02
5.303e-01,9.378e-02
5.341e-01,8.940e-02
5.380e-01,8.522e-02
5.419e-01,8.125e-02
5.457e-01,7.746e-02
5.496e-01,7.385e-02
5.534e-01,7.041e-02
5.573e-01,6.714e-02
5.611e-01,6.402e-02
5.650e-01,6.105e-02
5.688e-01,5.821e-02
5.727e-01,5.551e-02
5.766e-01,5.294e-02
5.804e-01,5.049e-02
5.843e-01,4.816e-02
5.881e-01,4.594e-02
5.920e-01,4.382e-02
5.958e-01,4.180e-02
5.997e-01,3.987e-02
6.036e-01,3.804e-02
6.074e-01,3.629e-02
6.113e-01,3.463e-02
6.151e-01,3.304e-02
6.190e-01,3.153e-02
6.228e-01,3.009e-02
6.267e-01,2.871e-02
6.306e-01,2.740e-02
6.344e-01,2.615e-02
6.383e-01,2.496e-02
6.421e-01,2.383e-02
6.460e-01,2.275e-02
6.498e-01,2.172e-02
6.537e-01,2.073e-02
6.576e-01,1.980e-02
6.614e-01,1.890e-02
6.653e-01,1.805e-02
6.691e-01,1.724e-02
6.730e-01,1.646e-02
6.768e-01,1.572e-02
6.807e-01,1.502e-02
6.845e-01,1.434e-02
6.884e-01,1.370e-02
6.923e-01,1.309e-02
6.961e-01,1.250e-02
7.000e-01,1.195e-02
7.038e-01,1.142e-02
7.077e-01,1.091e-02
7.115e-01,1.042e-02
7.154e-01,9.962e-03
7.193e-01,9.521e-03
7.231e-01,9.100e-03
7.270e-01,8.699e-03
7.308e-01,8.315e-03
7.347e-01,7.949e-03
7.385e-01,7.600e-03
7.424e-01,7.267e-03
7.463e-01,6.948e-03
7.501e-01,6.644e-03
7.540e-01,6.354e-03
7.578e-01,6.077e-03
7.617e-01,5.812e-03
7.655e-01,5.559e-03
7.694e-01,5.318e-03
