transmittance,probability_density
1.681e-03,5.772e-01
5.042e-03,2.124e+00
8.404e-03,3.024e+00
1.177e-02,3.599e+00
1.513e-02,3.996e+00
1.849e-02,4.294e+00
2.185e-02,4.537e+00
2.521e-02,4.749e+00
2.857e-02,4.943e+00
3.194e-02,5.125e+00
3.530e-02,5.298e+00
3.866e-02,5.463e+00
4.202e-02,5.621e+00
4.538e-02,5.771e+00
4.874e-02,5.911e+00
5.210e-02,6.039e+00
5.547e-02,6.155e+00
5.883e-02,6.255e+00
6.219e-02,6.338e+00
6.555e-02,6.403e+00
6.891e-02,6.448e+00
7.227e-02,6.473e+00
7.564e-02,6.478e+00
7.900e-02,6.462e+00
8.236e-02,6.427e+00
8.572e-02,6.372e+00
8.908e-02,6.300e+00
9.244e-02,6.210e+00
9.581e-02,6.106e+00
9.917e-02,5.988e+00
1.025e-01,5.858e+00
1.059e-01,5.717e+00
1.093e-01,5.568e+00
1.126e-01,5.411e+00
1.160e-01,5.249e+00
1.193e-01,5.082e+00
1.227e-01,4.912e+00
1.261e-01,4.740e+00
1.294e-01,4.567e+00
1.328e-01,4.394e+00
1.361e-01,4.223e+00
1.395e-01,4.053e+00
1.429e-01,3.885e+00
1.462e-01,3.720e+00
1.496e-01,3.559e+00
1.530e-01,3.401e+00
1.563e-01,3.248e+00
1.597e-01,3.099e+00
1.630e-01,2.954e+00
1.664e-01,2.814e+00
1.698e-01,2.680e+00
1.731e-01,2.550e+00
1.765e-01,2.425e+00
1.798e-01,2.305e+00
1.832e-01,2.190e+00
1.866e-01,2.079e+00
1.899e-01,1.974e+00
1.933e-01,1.873e+00
1.967e-01,1.776e+00
2.000e-01,1.684e+00
2.034e-01,1.597e+00
2.067e-01,1.513e+00
2.101e-01,1.434e+00
2.135e-01,1.358e+00
2.168e-01,1.286e+00
2.202e-01,1.218e+00
2.235e-01,1.153e+00
2.269e-01,1.091e+00
2.303e-01,1.033e+00
2.336e-01,9.776e-01
2.370e-01,9.250e-01
2.404e-01,8.752e-01
2.437e-01,8.281e-01
2.471e-01,7.834e-01
2.504e-01,7.411e-01
2.538e-01,7.011e-01
2.572e-01,6.632e-01
2.605e-01,6.273e-01
2.639e-01,5.933e-01
2.672e-01,5.612e-01
2.706e-01,5.309e-01
2.740e-01,5.022e-01
2.773e-01,4.750e-01
2.807e-01,4.494e-01
2.841e-01,4.251e-01
2.874e-01,4.021e-01
2.908e-01,3.804e-01
2.941e-01,3.599e-01
2.975e-01,3.406e-01
3.009e-01,3.222e-01
3.042e-01,3.049e-01
3.076e-01,2.886e-01
3.109e-01,2.731e-01
3.143e-01,2.585e-01
3.177e-01,2.447e-01
3.210e-01,2.316e-01
3.244e-01,2.193e-01
3.278e-01,2.076e-01
3.311e-01,1.966e-01
3.345e-01,1.861e-01
3.378e-01,1.763e-01
3.412e-01,1.670e-01
3.446e-01,1.582e-01
3.479e-01,1.498e-01
3.513e-01,1.420e-01
3.546e-01,1.345e-01
3.580e-01,1.275e-01
3.614e-01,1.208e-01
3.647e-01,1.145e-01
3.681e-01,1.085e-01
3.715e-01,1.029e-01
3.748e-01,9.757e-02
3.782e-01,9.252e-02
3.815e-01,8.774e-02
3.849e-01,8.322e-02
3.883e-01,7.894e-02
3.916e-01,7.489e-02
3.950e-01,7.106e-02
3.983e-01,6.743e-02
4.017e-01,6.399e-02
4.051e-01,6.074e-02
4.084e-01,5.766e-02
4.118e-01,5.474e-02
4.152e-01,5.197e-02
4.185e-01,4.936e-02
4.219e-01,4.687e-02
4.252e-01,4.452e-02
4.286e-01,4.230e-02
4.320e-01,4.018e-02
4.353e-01,3.818e-02
4.387e-01,3.628e-02
4.421e-01,3.449e-02
4.454e-01,3.278e-02
4.488e-01,3.116e-02
4.521e-01,2.963e-02
4.555e-01,2.817e-02
4.589e-01,2.679e-02
4.622e-01,2.548e-02
4.656e-01,2.424e-02
4.689e-01,2.306e-02
4.723e-01,2.194e-02
4.757e-01,2.088e-02
4.790e-01,1.987e-02
4.824e-01,1.891e-02
4.858e-01,1.800e-02
4.891e-01,1.714e-02
4.925e-01,1.632e-02
4.958e-01,1.554e-02
4.992e-01,1.480e-02
5.026e-01,1.410e-02
5.059e-01,1.343e-02
5.093e-01,1.280e-02
5.126e-01,1.219e-02
5.160e-01,1.162e-02
5.194e-01,1.107e-02
5.227e-01,1.055e-02
5.261e-01,1.006e-02
5.295e-01,9.593e-03
5.328e-01,9.147e-03
5.362e-01,8.722e-03
5.395e-01,8.319e-03
5.429e-01,7.935e-03
5.463e-01,7.570e-03
5.496e-01,7.222e-03
5.530e-01,6.891e-03
5.563e-01,6.576e-03
5.597e-01,6.276e-03
5.631e-01,5.990e-03
5.664e-01,5.718e-03
5.698e-01,5.459e-03
5.732e-01,5.213e-03
5.765e-01,4.978e-03
5.799e-01,4.754e-03
5.832e-01,4.541e-03
5.866e-01,4.337e-03
5.900e-01,4.144e-03
5.933e-01,3.959e-03
5.967e-01,3.783e-03
6.000e-01,3.615e-03
6.034e-01,3.455e-03
6.068e-01,3.303e-03
6.101e-01,3.158e-03
6.135e-01,3.019e-03
6.169e-01,2.887e-03
6.202e-01,2.760e-03
6.236e-01,2.640e-03
6.269e-01,2.525e-03
6.303e-01,2.415e-03
6.337e-01,2.311e-03
6.370e-01,2.211e-03
6.404e-01,2.115e-03
6.437e-01,2.024e-03
6.471e-01,1.938e-03
6.505e-01,1.855e-03
6.538e-01,1.775e-03
6.572e-01,1.700e-03
6.606e-01,1.627e-03
6.639e-01,1.558e-03
6.673e-01,1.492e-03
6.706e-01,1.429e-03
