transmittance,probability_density
2.500e-03,2.134e-11
7.500e-03,3.034e-06
1.250e-02,1.438e-04
1.750e-02,1.052e-03
2.250e-02,3.557e-03
2.750e-02,8.113e-03
3.250e-02,1.475e-02
3.750e-02,2.324e-02
4.250e-02,3.325e-02
4.750e-02,4.438e-02
5.250e-02,5.624e-02
5.750e-02,6.846e-02
6.250e-02,8.076e-02
6.750e-02,9.293e-02
7.250e-02,1.049e-01
7.750e-02,1.165e-01
8.250e-02,1.278e-01
8.750e-02,1.389e-01
9.250e-02,1.497e-01
9.750e-02,1.604e-01
1.025e-01,1.711e-01
1.075e-01,1.818e-01
1.125e-01,1.926e-01
1.175e-01,2.035e-01
1.225e-01,2.146e-01
1.275e-01,2.260e-01
1.325e-01,2.377e-01
1.375e-01,2.497e-01
1.425e-01,2.621e-01
1.475e-01,2.749e-01
1.525e-01,2.882e-01
1.575e-01,3.019e-01
1.625e-01,3.161e-01
1.675e-01,3.310e-01
1.725e-01,3.463e-01
1.775e-01,3.623e-01
1.825e-01,3.789e-01
1.875e-01,3.961e-01
1.925e-01,4.139e-01
1.975e-01,4.323e-01
2.025e-01,4.512e-01
2.075e-01,4.706e-01
2.125e-01,4.904e-01
2.175e-01,5.107e-01
2.225e-01,5.314e-01
2.275e-01,5.525e-01
2.325e-01,5.739e-01
2.375e-01,5.958e-01
2.425e-01,6.180e-01
2.475e-01,6.407e-01
2.525e-01,6.638e-01
2.575e-01,6.875e-01
2.625e-01,7.117e-01
2.675e-01,7.366e-01
2.725e-01,7.622e-01
2.775e-01,7.885e-01
2.825e-01,8.156e-01
2.875e-01,8.436e-01
2.925e-01,8.724e-01
2.975e-01,9.023e-01
3.025e-01,9.330e-01
3.075e-01,9.648e-01
3.125e-01,9.976e-01
3.175e-01,1.031e+00
3.225e-01,1.066e+00
3.275e-01,1.102e+00
3.325e-01,1.138e+00
3.375e-01,1.176e+00
3.425e-01,1.214e+00
3.475e-01,1.253e+00
3.525e-01,1.293e+00
3.575e-01,1.334e+00
3.625e-01,1.375e+00
3.675e-01,1.417e+00
3.725e-01,1.460e+00
3.775e-01,1.503e+00
3.825e-01,1.546e+00
3.875e-01,1.590e+00
3.925e-01,1.634e+00
3.975e-01,1.678e+00
4.025e-01,1.723e+00
4.075e-01,1.767e+00
4.125e-01,1.812e+00
4.175e-01,1.856e+00
4.225e-01,1.900e+00
4.275e-01,1.944e+00
4.325e-01,1.987e+00
4.375e-01,2.030e+00
4.425e-01,2.072e+00
4.475e-01,2.114e+00
4.525e-01,2.154e+00
4.575e-01,2.193e+00
4.625e-01,2.232e+00
4.675e-01,2.268e+00
4.725e-01,2.303e+00
4.775e-01,2.337e+00
4.825e-01,2.368e+00
4.875e-01,2.397e+00
4.925e-01,2.425e+00
4.975e-01,2.450e+00
5.025e-01,2.472e+00
5.075e-01,2.492e+00
5.125e-01,2.509e+00
5.175e-01,2.523e+00
5.225e-01,2.535e+00
5.275e-01,2.543e+00
5.325e-01,2.549e+00
5.375e-01,2.551e+00
5.425e-01,2.550e+00
5.475e-01,2.546e+00
5.525e-01,2.538e+00
5.575e-01,2.528e+00
5.625e-01,2.514e+00
5.675e-01,2.497e+00
5.725e-01,2.477e+00
5.775e-01,2.454e+00
5.825e-01,2.428e+00
5.875e-01,2.400e+00
5.925e-01,2.368e+00
5.975e-01,2.334e+00
6.025e-01,2.298e+00
6.075e-01,2.259e+00
6.125e-01,2.219e+00
6.175e-01,2.176e+00
6.225e-01,2.131e+00
6.275e-01,2.085e+00
6.325e-01,2.037e+00
6.375e-01,1.988e+00
6.425e-01,1.938e+00
6.475e-01,1.887e+00
6.525e-01,1.835e+00
6.575e-01,1.782e+00
6.625e-01,1.729e+00
6.675e-01,1.676e+00
6.725e-01,1.622e+00
6.775e-01,1.569e+00
6.825e-01,1.515e+00
6.875e-01,1.462e+00
6.925e-01,1.409e+00
6.975e-01,1.357e+00
7.025e-01,1.305e+00
7.075e-01,1.254e+00
7.125e-01,1.203e+00
7.175e-01,1.154e+00
7.225e-01,1.106e+00
7.275e-01,1.058e+00
7.325e-01,1.012e+00
7.375e-01,9.664e-01
7.425e-01,9.223e-01
7.475e-01,8.795e-01
7.525e-01,8.378e-01
7.575e-01,7.975e-01
7.625e-01,7.584e-01
7.675e-01,7.206e-01
7.725e-01,6.842e-01
7.775e-01,6.490e-01
7.825e-01,6.152e-01
7.875e-01,5.826e-01
7.925e-01,5.514e-01
7.975e-01,5.214e-01
8.025e-01,4.927e-01
8.075e-01,4.652e-01
8.125e-01,4.389e-01
8.175e-01,4.138e-01
8.225e-01,3.899e-01
8.275e-01,3.671e-01
8.325e-01,3.454e-01
8.375e-01,3.247e-01
8.425e-01,3.051e-01
8.475e-01,2.865e-01
8.525e-01,2.689e-01
8.575e-01,2.521e-01
8.625e-01,2.363e-01
8.675e-01,2.214e-01
8.725e-01,2.072e-01
8.775e-01,1.939e-01
8.825e-01,1.813e-01
8.875e-01,1.694e-01
8.925e-01,1.582e-01
8.975e-01,1.477e-01
9.025e-01,1.378e-01
9.075e-01,1.285e-01
9.125e-01,1.198e-01
9.175e-01,1.116e-01
9.225e-01,1.039e-01
9.275e-01,9.666e-02
9.325e-01,8.991e-02
9.375e-01,8.359e-02
9.425e-01,7.768e-02
9.475e-01,7.215e-02
9.525e-01,6.699e-02
9.575e-01,6.217e-02
9.625e-01,5.767e-02
9.675e-01,5.348e-02
9.725e-01,4.957e-02
9.775e-01,4.592e-02
9.825e-01,4.253e-02
9.875e-01,3.937e-02
9.925e-01,3.644e-02
9.975e-01,3.370e-02
