transmittance,probability_density
2.500e-03,3.358e-15
7.500e-03,2.177e-08
1.250e-02,4.216e-06
1.750e-02,6.816e-05
2.250e-02,3.855e-04
2.750e-02,1.252e-03
3.250e-02,2.927e-03
3.750e-02,5.551e-03
4.250e-02,9.152e-03
4.750e-02,1.370e-02
5.250e-02,1.912e-02
5.750e-02,2.532e-02
6.250e-02,3.220e-02
6.750e-02,3.962e-02
7.250e-02,4.744e-02
7.750e-02,5.553e-02
8.250e-02,6.375e-02
8.750e-02,7.201e-02
9.250e-02,8.023e-02
9.750e-02,8.836e-02
1.025e-01,9.637e-02
1.075e-01,1.043e-01
1.125e-01,1.121e-01
1.175e-01,1.198e-01
1.225e-01,1.275e-01
1.275e-01,1.352e-01
1.325e-01,1.430e-01
1.375e-01,1.508e-01
1.425e-01,1.589e-01
1.475e-01,1.671e-01
1.525e-01,1.755e-01
1.575e-01,1.842e-01
1.625e-01,1.932e-01
1.675e-01,2.026e-01
1.725e-01,2.122e-01
1.775e-01,2.222e-01
1.825e-01,2.327e-01
1.875e-01,2.435e-01
1.925e-01,2.547e-01
1.975e-01,2.664e-01
2.025e-01,2.786e-01
2.075e-01,2.912e-01
2.125e-01,3.044e-01
2.175e-01,3.182e-01
2.225e-01,3.324e-01
2.275e-01,3.473e-01
2.325e-01,3.627e-01
2.375e-01,3.787e-01
2.425e-01,3.953e-01
2.475e-01,4.124e-01
2.525e-01,4.300e-01
2.575e-01,4.481e-01
2.625e-01,4.667e-01
2.675e-01,4.858e-01
2.725e-01,5.053e-01
2.775e-01,5.253e-01
2.825e-01,5.457e-01
2.875e-01,5.665e-01
2.925e-01,5.877e-01
2.975e-01,6.094e-01
3.025e-01,6.316e-01
3.075e-01,6.542e-01
3.125e-01,6.775e-01
3.175e-01,7.013e-01
3.225e-01,7.257e-01
3.275e-01,7.509e-01
3.325e-01,7.767e-01
3.375e-01,8.034e-01
3.425e-01,8.308e-01
3.475e-01,8.592e-01
3.525e-01,8.883e-01
3.575e-01,9.185e-01
3.625e-01,9.495e-01
3.675e-01,9.815e-01
3.725e-01,1.014e+00
3.775e-01,1.048e+00
3.825e-01,1.083e+00
3.875e-01,1.119e+00
3.925e-01,1.156e+00
3.975e-01,1.193e+00
4.025e-01,1.232e+00
4.075e-01,1.271e+00
4.125e-01,1.312e+00
4.175e-01,1.353e+00
4.225e-01,1.394e+00
4.275e-01,1.437e+00
4.325e-01,1.480e+00
4.375e-01,1.524e+00
4.425e-01,1.569e+00
4.475e-01,1.614e+00
4.525e-01,1.660e+00
4.575e-01,1.706e+00
4.625e-01,1.753e+00
4.675e-01,1.799e+00
4.725e-01,1.846e+00
4.775e-01,1.894e+00
4.825e-01,1.941e+00
4.875e-01,1.988e+00
4.925e-01,2.035e+00
4.975e-01,2.081e+00
5.025e-01,2.127e+00
5.075e-01,2.173e+00
5.125e-01,2.217e+00
5.175e-01,2.260e+00
5.225e-01,2.302e+00
5.275e-01,2.343e+00
5.325e-01,2.382e+00
5.375e-01,2.419e+00
5.425e-01,2.455e+00
5.475e-01,2.488e+00
5.525e-01,2.518e+00
5.575e-01,2.546e+00
5.625e-01,2.571e+00
5.675e-01,2.594e+00
5.725e-01,2.613e+00
5.775e-01,2.628e+00
5.825e-01,2.641e+00
5.875e-01,2.650e+00
5.925e-01,2.655e+00
5.975e-01,2.657e+00
6.025e-01,2.654e+00
6.075e-01,2.648e+00
6.125e-01,2.639e+00
6.175e-01,2.625e+00
6.225e-01,2.608e+00
6.275e-01,2.587e+00
6.325e-01,2.563e+00
6.375e-01,2.535e+00
6.425e-01,2.503e+00
6.475e-01,2.469e+00
6.525e-01,2.431e+00
6.575e-01,2.391e+00
6.625e-01,2.347e+00
6.675e-01,2.301e+00
6.725e-01,2.253e+00
6.775e-01,2.203e+00
6.825e-01,2.150e+00
6.875e-01,2.096e+00
6.925e-01,2.040e+00
6.975e-01,1.983e+00
7.025e-01,1.925e+00
7.075e-01,1.866e+00
7.125e-01,1.807e+00
7.175e-01,1.747e+00
7.225e-01,1.686e+00
7.275e-01,1.626e+00
7.325e-01,1.566e+00
7.375e-01,1.506e+00
7.425e-01,1.446e+00
7.475e-01,1.387e+00
7.525e-01,1.329e+00
7.575e-01,1.272e+00
7.625e-01,1.215e+00
7.675e-01,1.160e+00
7.725e-01,1.106e+00
7.775e-01,1.053e+00
7.825e-01,1.002e+00
7.875e-01,9.519e-01
7.925e-01,9.034e-01
7.975e-01,8.564e-01
8.025e-01,8.110e-01
8.075e-01,7.672e-01
8.125e-01,7.250e-01
8.175e-01,6.844e-01
8.225e-01,6.454e-01
8.275e-01,6.080e-01
8.325e-01,5.722e-01
8.375e-01,5.380e-01
8.425e-01,5.054e-01
8.475e-01,4.743e-01
8.525e-01,4.446e-01
8.575e-01,4.165e-01
8.625e-01,3.898e-01
8.675e-01,3.644e-01
8.725e-01,3.404e-01
8.775e-01,3.178e-01
8.825e-01,2.963e-01
8.875e-01,2.761e-01
8.925e-01,2.571e-01
8.975e-01,2.392e-01
9.025e-01,2.223e-01
9.075e-01,2.065e-01
9.125e-01,1.916e-01
9.175e-01,1.777e-01
9.225e-01,1.647e-01
9.275e-01,1.525e-01
9.325e-01,1.411e-01
9.375e-01,1.305e-01
9.425e-01,1.206e-01
9.475e-01,1.114e-01
9.525e-01,1.028e-01
9.575e-01,9.478e-02
9.625e-01,8.735e-02
9.675e-01,8.045e-02
9.725e-01,7.404e-02
9.775e-01,6.811e-02
9.825e-01,6.261e-02
9.875e-01,5.753e-02
9.925e-01,5.282e-02
9.975e-01,4.847e-02
