transmittance,probability_density
2.500e-03,5.687e-05
7.500e-03,1.070e-02
1.250e-02,4.971e-02
1.750e-02,1.052e-01
2.250e-02,1.637e-01
2.750e-02,2.188e-01
3.250e-02,2.689e-01
3.750e-02,3.143e-01
4.250e-02,3.561e-01
4.750e-02,3.951e-01
5.250e-02,4.324e-01
5.750e-02,4.686e-01
6.250e-02,5.043e-01
6.750e-02,5.399e-01
7.250e-02,5.756e-01
7.750e-02,6.114e-01
8.250e-02,6.474e-01
8.750e-02,6.832e-01
9.250e-02,7.188e-01
9.750e-02,7.540e-01
1.025e-01,7.889e-01
1.075e-01,8.235e-01
1.125e-01,8.578e-01
1.175e-01,8.920e-01
1.225e-01,9.263e-01
1.275e-01,9.611e-01
1.325e-01,9.964e-01
1.375e-01,1.033e+00
1.425e-01,1.070e+00
1.475e-01,1.108e+00
1.525e-01,1.148e+00
1.575e-01,1.190e+00
1.625e-01,1.233e+00
1.675e-01,1.277e+00
1.725e-01,1.324e+00
1.775e-01,1.371e+00
1.825e-01,1.420e+00
1.875e-01,1.470e+00
1.925e-01,1.522e+00
1.975e-01,1.574e+00
2.025e-01,1.627e+00
2.075e-01,1.681e+00
2.125e-01,1.735e+00
2.175e-01,1.790e+00
2.225e-01,1.844e+00
2.275e-01,1.899e+00
2.325e-01,1.953e+00
2.375e-01,2.006e+00
2.425e-01,2.059e+00
2.475e-01,2.110e+00
2.525e-01,2.161e+00
2.575e-01,2.210e+00
2.625e-01,2.258e+00
2.675e-01,2.303e+00
2.725e-01,2.347e+00
2.775e-01,2.389e+00
2.825e-01,2.428e+00
2.875e-01,2.465e+00
2.925e-01,2.499e+00
2.975e-01,2.531e+00
3.025e-01,2.559e+00
3.075e-01,2.584e+00
3.125e-01,2.607e+00
3.175e-01,2.626e+00
3.225e-01,2.641e+00
3.275e-01,2.653e+00
3.325e-01,2.662e+00
3.375e-01,2.668e+00
3.425e-01,2.669e+00
3.475e-01,2.668e+00
3.525e-01,2.663e+00
3.575e-01,2.655e+00
3.625e-01,2.643e+00
3.675e-01,2.628e+00
3.725e-01,2.610e+00
3.775e-01,2.589e+00
3.825e-01,2.564e+00
3.875e-01,2.538e+00
3.925e-01,2.508e+00
3.975e-01,2.476e+00
4.025e-01,2.441e+00
4.075e-01,2.404e+00
4.125e-01,2.365e+00
4.175e-01,2.324e+00
4.225e-01,2.282e+00
4.275e-01,2.238e+00
4.325e-01,2.192e+00
4.375e-01,2.145e+00
4.425e-01,2.097e+00
4.475e-01,2.048e+00
4.525e-01,1.999e+00
4.575e-01,1.948e+00
4.625e-01,1.897e+00
4.675e-01,1.846e+00
4.725e-01,1.795e+00
4.775e-01,1.743e+00
4.825e-01,1.692e+00
4.875e-01,1.641e+00
4.925e-01,1.590e+00
4.975e-01,1.539e+00
5.025e-01,1.489e+00
5.075e-01,1.439e+00
5.125e-01,1.390e+00
5.175e-01,1.342e+00
5.225e-01,1.294e+00
5.275e-01,1.247e+00
5.325e-01,1.201e+00
5.375e-01,1.156e+00
5.425e-01,1.112e+00
5.475e-01,1.069e+00
5.525e-01,1.027e+00
5.575e-01,9.864e-01
5.625e-01,9.466e-01
5.675e-01,9.078e-01
5.725e-01,8.702e-01
5.775e-01,8.336e-01
5.825e-01,7.982e-01
5.875e-01,7.638e-01
5.925e-01,7.306e-01
5.975e-01,6.985e-01
6.025e-01,6.675e-01
6.075e-01,6.375e-01
6.125e-01,6.086e-01
6.175e-01,5.808e-01
6.225e-01,5.540e-01
6.275e-01,5.282e-01
6.325e-01,5.034e-01
6.375e-01,4.796e-01
6.425e-01,4.567e-01
6.475e-01,4.347e-01
6.525e-01,4.137e-01
6.575e-01,3.935e-01
6.625e-01,3.741e-01
6.675e-01,3.556e-01
6.725e-01,3.379e-01
6.775e-01,3.210e-01
6.825e-01,3.048e-01
6.875e-01,2.894e-01
6.925e-01,2.746e-01
6.975e-01,2.605e-01
7.025e-01,2.471e-01
7.075e-01,2.343e-01
7.125e-01,2.221e-01
7.175e-01,2.105e-01
7.225e-01,1.994e-01
7.275e-01,1.889e-01
7.325e-01,1.789e-01
7.375e-01,1.693e-01
7.425e-01,1.603e-01
7.475e-01,1.517e-01
7.525e-01,1.435e-01
7.575e-01,1.357e-01
7.625e-01,1.284e-01
7.675e-01,1.214e-01
7.725e-01,1.147e-01
7.775e-01,1.084e-01
7.825e-01,1.025e-01
7.875e-01,9.680e-02
7.925e-01,9.144e-02
7.975e-01,8.636e-02
8.025e-01,8.154e-02
8.075e-01,7.699e-02
8.125e-01,7.267e-02
8.175e-01,6.859e-02
8.225e-01,6.473e-02
8.275e-01,6.107e-02
8.325e-01,5.762e-02
8.375e-01,5.435e-02
8.425e-01,5.126e-02
8.475e-01,4.834e-02
8.525e-01,4.558e-02
8.575e-01,4.297e-02
8.625e-01,4.051e-02
8.675e-01,3.818e-02
8.725e-01,3.599e-02
8.775e-01,3.391e-02
8.825e-01,3.196e-02
8.875e-01,3.011e-02
8.925e-01,2.836e-02
8.975e-01,2.672e-02
9.025e-01,2.517e-02
9.075e-01,2.370e-02
9.125e-01,2.232e-02
9.175e-01,2.102e-02
9.225e-01,1.979e-02
9.275e-01,1.864e-02
9.325e-01,1.754e-02
9.375e-01,1.652e-02
9.425e-01,1.555e-02
9.475e-01,1.463e-02
9.525e-01,1.377e-02
9.575e-01,1.296e-02
9.625e-01,1.220e-02
9.675e-01,1.148e-02
9.725e-01,1.080e-02
9.775e-01,1.016e-02
9.825e-01,9.562e-03
9.875e-01,8.996e-03
9.925e-01,8.464e-03
9.975e-01,7.962e-03
