transmittance,probability_density
2.500e-03,1.574e-07
7.500e-03,4.271e-04
1.250e-02,4.863e-03
1.750e-02,1.657e-02
2.250e-02,3.493e-02
2.750e-02,5.768e-02
3.250e-02,8.250e-02
3.750e-02,1.077e-01
4.250e-02,1.323e-01
4.750e-02,1.557e-01
5.250e-02,1.780e-01
5.750e-02,1.991e-01
6.250e-02,2.194e-01
6.750e-02,2.389e-01
7.250e-02,2.580e-01
7.750e-02,2.768e-01
8.250e-02,2.955e-01
8.750e-02,3.143e-01
9.250e-02,3.332e-01
9.750e-02,3.525e-01
1.025e-01,3.722e-01
1.075e-01,3.924e-01
1.125e-01,4.132e-01
1.175e-01,4.346e-01
1.225e-01,4.566e-01
1.275e-01,4.792e-01
1.325e-01,5.024e-01
1.375e-01,5.260e-01
1.425e-01,5.500e-01
1.475e-01,5.744e-01
1.525e-01,5.990e-01
1.575e-01,6.238e-01
1.625e-01,6.489e-01
1.675e-01,6.742e-01
1.725e-01,6.998e-01
1.775e-01,7.258e-01
1.825e-01,7.521e-01
1.875e-01,7.791e-01
1.925e-01,8.066e-01
1.975e-01,8.349e-01
2.025e-01,8.641e-01
2.075e-01,8.942e-01
2.125e-01,9.254e-01
2.175e-01,9.576e-01
2.225e-01,9.911e-01
2.275e-01,1.026e+00
2.325e-01,1.061e+00
2.375e-01,1.098e+00
2.425e-01,1.137e+00
2.475e-01,1.176e+00
2.525e-01,1.216e+00
2.575e-01,1.258e+00
2.625e-01,1.300e+00
2.675e-01,1.343e+00
2.725e-01,1.387e+00
2.775e-01,1.432e+00
2.825e-01,1.477e+00
2.875e-01,1.523e+00
2.925e-01,1.569e+00
2.975e-01,1.615e+00
3.025e-01,1.662e+00
3.075e-01,1.708e+00
3.125e-01,1.755e+00
3.175e-01,1.801e+00
3.225e-01,1.847e+00
3.275e-01,1.892e+00
3.325e-01,1.937e+00
3.375e-01,1.981e+00
3.425e-01,2.024e+00
3.475e-01,2.067e+00
3.525e-01,2.108e+00
3.575e-01,2.148e+00
3.625e-01,2.187e+00
3.675e-01,2.224e+00
3.725e-01,2.259e+00
3.775e-01,2.293e+00
3.825e-01,2.325e+00
3.875e-01,2.355e+00
3.925e-01,2.383e+00
3.975e-01,2.409e+00
4.025e-01,2.432e+00
4.075e-01,2.452e+00
4.125e-01,2.471e+00
4.175e-01,2.486e+00
4.225e-01,2.499e+00
4.275e-01,2.509e+00
4.325e-01,2.516e+00
4.375e-01,2.520e+00
4.425e-01,2.521e+00
4.475e-01,2.520e+00
4.525e-01,2.515e+00
4.575e-01,2.508e+00
4.625e-01,2.497e+00
4.675e-01,2.484e+00
4.725e-01,2.468e+00
4.775e-01,2.449e+00
4.825e-01,2.428e+00
4.875e-01,2.404e+00
4.925e-01,2.377e+00
4.975e-01,2.348e+00
5.025e-01,2.317e+00
5.075e-01,2.284e+00
5.125e-01,2.248e+00
5.175e-01,2.211e+00
5.225e-01,2.172e+00
5.275e-01,2.131e+00
5.325e-01,2.089e+00
5.375e-01,2.046e+00
5.425e-01,2.001e+00
5.475e-01,1.956e+00
5.525e-01,1.909e+00
5.575e-01,1.862e+00
5.625e-01,1.814e+00
5.675e-01,1.766e+00
5.725e-01,1.717e+00
5.775e-01,1.668e+00
5.825e-01,1.619e+00
5.875e-01,1.570e+00
5.925e-01,1.521e+00
5.975e-01,1.473e+00
6.025e-01,1.424e+00
6.075e-01,1.376e+00
6.125e-01,1.329e+00
6.175e-01,1.282e+00
6.225e-01,1.236e+00
6.275e-01,1.190e+00
6.325e-01,1.146e+00
6.375e-01,1.102e+00
6.425e-01,1.059e+00
6.475e-01,1.017e+00
6.525e-01,9.754e-01
6.575e-01,9.353e-01
6.625e-01,8.962e-01
6.675e-01,8.581e-01
6.725e-01,8.211e-01
6.775e-01,7.852e-01
6.825e-01,7.503e-01
6.875e-01,7.166e-01
6.925e-01,6.839e-01
6.975e-01,6.524e-01
7.025e-01,6.219e-01
7.075e-01,5.925e-01
7.125e-01,5.641e-01
7.175e-01,5.368e-01
7.225e-01,5.106e-01
7.275e-01,4.853e-01
7.325e-01,4.611e-01
7.375e-01,4.378e-01
7.425e-01,4.155e-01
7.475e-01,3.942e-01
7.525e-01,3.737e-01
7.575e-01,3.542e-01
7.625e-01,3.355e-01
7.675e-01,3.176e-01
7.725e-01,3.006e-01
7.775e-01,2.843e-01
7.825e-01,2.688e-01
7.875e-01,2.541e-01
7.925e-01,2.400e-01
7.975e-01,2.267e-01
8.025e-01,2.140e-01
8.075e-01,2.019e-01
8.125e-01,1.904e-01
8.175e-01,1.795e-01
8.225e-01,1.692e-01
8.275e-01,1.594e-01
8.325e-01,1.502e-01
8.375e-01,1.414e-01
8.425e-01,1.331e-01
8.475e-01,1.252e-01
8.525e-01,1.178e-01
8.575e-01,1.107e-01
8.625e-01,1.041e-01
8.675e-01,9.779e-02
8.725e-01,9.187e-02
8.775e-01,8.627e-02
8.825e-01,8.100e-02
8.875e-01,7.602e-02
8.925e-01,7.133e-02
8.975e-01,6.692e-02
9.025e-01,6.275e-02
9.075e-01,5.884e-02
9.125e-01,5.515e-02
9.175e-01,5.168e-02
9.225e-01,4.842e-02
9.275e-01,4.535e-02
9.325e-01,4.247e-02
9.375e-01,3.976e-02
9.425e-01,3.722e-02
9.475e-01,3.483e-02
9.525e-01,3.259e-02
9.575e-01,3.048e-02
9.625e-01,2.851e-02
9.675e-01,2.666e-02
9.725e-01,2.492e-02
9.775e-01,2.329e-02
9.825e-01,2.177e-02
9.875e-01,2.034e-02
9.925e-01,1.900e-02
9.975e-01,1.774e-02
