transmittance,probability_density
2.500e-03,9.590e-07
7.500e-03,1.247e-03
1.250e-02,9.992e-03
1.750e-02,2.603e-02
2.250e-02,4.377e-02
2.750e-02,5.986e-02
3.250e-02,7.365e-02
3.750e-02,8.571e-02
4.250e-02,9.680e-02
4.750e-02,1.074e-01
5.250e-02,1.179e-01
5.750e-02,1.284e-01
6.250e-02,1.390e-01
6.750e-02,1.499e-01
7.250e-02,1.613e-01
7.750e-02,1.734e-01
8.250e-02,1.864e-01
8.750e-02,2.006e-01
9.250e-02,2.160e-01
9.750e-02,2.329e-01
1.025e-01,2.511e-01
1.075e-01,2.707e-01
1.125e-01,2.917e-01
1.175e-01,3.140e-01
1.225e-01,3.376e-01
1.275e-01,3.624e-01
1.325e-01,3.885e-01
1.375e-01,4.157e-01
1.425e-01,4.441e-01
1.475e-01,4.737e-01
1.525e-01,5.045e-01
1.575e-01,5.365e-01
1.625e-01,5.696e-01
1.675e-01,6.038e-01
1.725e-01,6.391e-01
1.775e-01,6.754e-01
1.825e-01,7.126e-01
1.875e-01,7.506e-01
1.925e-01,7.894e-01
1.975e-01,8.289e-01
2.025e-01,8.689e-01
2.075e-01,9.096e-01
2.125e-01,9.508e-01
2.175e-01,9.925e-01
2.225e-01,1.035e+00
2.275e-01,1.078e+00
2.325e-01,1.121e+00
2.375e-01,1.165e+00
2.425e-01,1.210e+00
2.475e-01,1.255e+00
2.525e-01,1.302e+00
2.575e-01,1.349e+00
2.625e-01,1.397e+00
2.675e-01,1.446e+00
2.725e-01,1.495e+00
2.775e-01,1.546e+00
2.825e-01,1.597e+00
2.875e-01,1.649e+00
2.925e-01,1.702e+00
2.975e-01,1.755e+00
3.025e-01,1.809e+00
3.075e-01,1.863e+00
3.125e-01,1.917e+00
3.175e-01,1.971e+00
3.225e-01,2.025e+00
3.275e-01,2.078e+00
3.325e-01,2.131e+00
3.375e-01,2.182e+00
3.425e-01,2.233e+00
3.475e-01,2.282e+00
3.525e-01,2.329e+00
3.575e-01,2.374e+00
3.625e-01,2.418e+00
3.675e-01,2.458e+00
3.725e-01,2.497e+00
3.775e-01,2.532e+00
3.825e-01,2.565e+00
3.875e-01,2.594e+00
3.925e-01,2.620e+00
3.975e-01,2.643e+00
4.025e-01,2.663e+00
4.075e-01,2.678e+00
4.125e-01,2.690e+00
4.175e-01,2.699e+00
4.225e-01,2.703e+00
4.275e-01,2.704e+00
4.325e-01,2.701e+00
4.375e-01,2.695e+00
4.425e-01,2.685e+00
4.475e-01,2.671e+00
4.525e-01,2.654e+00
4.575e-01,2.634e+00
4.625e-01,2.611e+00
4.675e-01,2.584e+00
4.725e-01,2.554e+00
4.775e-01,2.522e+00
4.825e-01,2.487e+00
4.875e-01,2.449e+00
4.925e-01,2.410e+00
4.975e-01,2.368e+00
5.025e-01,2.324e+00
5.075e-01,2.278e+00
5.125e-01,2.231e+00
5.175e-01,2.183e+00
5.225e-01,2.133e+00
5.275e-01,2.082e+00
5.325e-01,2.030e+00
5.375e-01,1.978e+00
5.425e-01,1.925e+00
5.475e-01,1.872e+00
5.525e-01,1.818e+00
5.575e-01,1.764e+00
5.625e-01,1.710e+00
5.675e-01,1.657e+00
5.725e-01,1.603e+00
5.775e-01,1.551e+00
5.825e-01,1.498e+00
5.875e-01,1.446e+00
5.925e-01,1.395e+00
5.975e-01,1.344e+00
6.025e-01,1.295e+00
6.075e-01,1.246e+00
6.125e-01,1.198e+00
6.175e-01,1.151e+00
6.225e-01,1.106e+00
6.275e-01,1.061e+00
6.325e-01,1.017e+00
6.375e-01,9.747e-01
6.425e-01,9.334e-01
6.475e-01,8.933e-01
6.525e-01,8.543e-01
6.575e-01,8.166e-01
6.625e-01,7.800e-01
6.675e-01,7.447e-01
6.725e-01,7.105e-01
6.775e-01,6.775e-01
6.825e-01,6.457e-01
6.875e-01,6.151e-01
6.925e-01,5.856e-01
6.975e-01,5.572e-01
7.025e-01,5.299e-01
7.075e-01,5.038e-01
7.125e-01,4.786e-01
7.175e-01,4.546e-01
7.225e-01,4.315e-01
7.275e-01,4.094e-01
7.325e-01,3.883e-01
7.375e-01,3.681e-01
7.425e-01,3.488e-01
7.475e-01,3.303e-01
7.525e-01,3.128e-01
7.575e-01,2.960e-01
7.625e-01,2.800e-01
7.675e-01,2.648e-01
7.725e-01,2.504e-01
7.775e-01,2.366e-01
7.825e-01,2.235e-01
7.875e-01,2.111e-01
7.925e-01,1.992e-01
7.975e-01,1.880e-01
8.025e-01,1.774e-01
8.075e-01,1.673e-01
8.125e-01,1.577e-01
8.175e-01,1.486e-01
8.225e-01,1.401e-01
8.275e-01,1.319e-01
8.325e-01,1.242e-01
8.375e-01,1.170e-01
8.425e-01,1.101e-01
8.475e-01,1.036e-01
8.525e-01,9.743e-02
8.575e-01,9.163e-02
8.625e-01,8.615e-02
8.675e-01,8.098e-02
8.725e-01,7.610e-02
8.775e-01,7.150e-02
8.825e-01,6.717e-02
8.875e-01,6.308e-02
8.925e-01,5.923e-02
8.975e-01,5.560e-02
9.025e-01,5.218e-02
9.075e-01,4.896e-02
9.125e-01,4.593e-02
9.175e-01,4.309e-02
9.225e-01,4.041e-02
9.275e-01,3.789e-02
9.325e-01,3.552e-02
9.375e-01,3.329e-02
9.425e-01,3.120e-02
9.475e-01,2.923e-02
9.525e-01,2.739e-02
9.575e-01,2.565e-02
9.625e-01,2.403e-02
9.675e-01,2.250e-02
9.725e-01,2.106e-02
9.775e-01,1.972e-02
9.825e-01,1.846e-02
9.875e-01,1.727e-02
9.925e-01,1.616e-02
9.975e-01,1.512e-02
