transmittance,probability_density
2.500e-03,1.235e-08
7.500e-03,1.049e-04
1.250e-02,1.785e-03
1.750e-02,7.503e-03
2.250e-02,1.803e-02
2.750e-02,3.265e-02
3.250e-02,5.011e-02
3.750e-02,6.914e-02
4.250e-02,8.870e-02
4.750e-02,1.081e-01
5.250e-02,1.269e-01
5.750e-02,1.449e-01
6.250e-02,1.622e-01
6.750e-02,1.789e-01
7.250e-02,1.950e-01
7.750e-02,2.107e-01
8.250e-02,2.262e-01
8.750e-02,2.416e-01
9.250e-02,2.571e-01
9.750e-02,2.726e-01
1.025e-01,2.883e-01
1.075e-01,3.044e-01
1.125e-01,3.208e-01
1.175e-01,3.376e-01
1.225e-01,3.550e-01
1.275e-01,3.730e-01
1.325e-01,3.915e-01
1.375e-01,4.107e-01
1.425e-01,4.305e-01
1.475e-01,4.510e-01
1.525e-01,4.720e-01
1.575e-01,4.935e-01
1.625e-01,5.154e-01
1.675e-01,5.378e-01
1.725e-01,5.605e-01
1.775e-01,5.835e-01
1.825e-01,6.068e-01
1.875e-01,6.305e-01
1.925e-01,6.544e-01
1.975e-01,6.787e-01
2.025e-01,7.035e-01
2.075e-01,7.287e-01
2.125e-01,7.545e-01
2.175e-01,7.810e-01
2.225e-01,8.082e-01
2.275e-01,8.362e-01
2.325e-01,8.652e-01
2.375e-01,8.952e-01
2.425e-01,9.261e-01
2.475e-01,9.582e-01
2.525e-01,9.914e-01
2.575e-01,1.026e+00
2.625e-01,1.061e+00
2.675e-01,1.098e+00
2.725e-01,1.135e+00
2.775e-01,1.174e+00
2.825e-01,1.213e+00
2.875e-01,1.254e+00
2.925e-01,1.295e+00
2.975e-01,1.337e+00
3.025e-01,1.380e+00
3.075e-01,1.423e+00
3.125e-01,1.467e+00
3.175e-01,1.511e+00
3.225e-01,1.556e+00
3.275e-01,1.601e+00
3.325e-01,1.646e+00
3.375e-01,1.691e+00
3.425e-01,1.736e+00
3.475e-01,1.781e+00
3.525e-01,1.825e+00
3.575e-01,1.870e+00
3.625e-01,1.914e+00
3.675e-01,1.957e+00
3.725e-01,2.000e+00
3.775e-01,2.041e+00
3.825e-01,2.082e+00
3.875e-01,2.122e+00
3.925e-01,2.161e+00
3.975e-01,2.198e+00
4.025e-01,2.234e+00
4.075e-01,2.268e+00
4.125e-01,2.301e+00
4.175e-01,2.331e+00
4.225e-01,2.360e+00
4.275e-01,2.387e+00
4.325e-01,2.411e+00
4.375e-01,2.433e+00
4.425e-01,2.452e+00
4.475e-01,2.469e+00
4.525e-01,2.484e+00
4.575e-01,2.495e+00
4.625e-01,2.504e+00
4.675e-01,2.510e+00
4.725e-01,2.513e+00
4.775e-01,2.513e+00
4.825e-01,2.510e+00
4.875e-01,2.504e+00
4.925e-01,2.495e+00
4.975e-01,2.483e+00
5.025e-01,2.469e+00
5.075e-01,2.451e+00
5.125e-01,2.431e+00
5.175e-01,2.408e+00
5.225e-01,2.383e+00
5.275e-01,2.355e+00
5.325e-01,2.325e+00
5.375e-01,2.292e+00
5.425e-01,2.258e+00
5.475e-01,2.221e+00
5.525e-01,2.183e+00
5.575e-01,2.142e+00
5.625e-01,2.100e+00
5.675e-01,2.057e+00
5.725e-01,2.013e+00
5.775e-01,1.967e+00
5.825e-01,1.920e+00
5.875e-01,1.872e+00
5.925e-01,1.824e+00
5.975e-01,1.775e+00
6.025e-01,1.726e+00
6.075e-01,1.676e+00
6.125e-01,1.627e+00
6.175e-01,1.577e+00
6.225e-01,1.527e+00
6.275e-01,1.477e+00
6.325e-01,1.428e+00
6.375e-01,1.379e+00
6.425e-01,1.331e+00
6.475e-01,1.283e+00
6.525e-01,1.236e+00
6.575e-01,1.189e+00
6.625e-01,1.143e+00
6.675e-01,1.099e+00
6.725e-01,1.055e+00
6.775e-01,1.012e+00
6.825e-01,9.696e-01
6.875e-01,9.286e-01
6.925e-01,8.887e-01
6.975e-01,8.499e-01
7.025e-01,8.121e-01
7.075e-01,7.755e-01
7.125e-01,7.400e-01
7.175e-01,7.057e-01
7.225e-01,6.724e-01
7.275e-01,6.404e-01
7.325e-01,6.094e-01
7.375e-01,5.796e-01
7.425e-01,5.509e-01
7.475e-01,5.232e-01
7.525e-01,4.967e-01
7.575e-01,4.712e-01
7.625e-01,4.468e-01
7.675e-01,4.234e-01
7.725e-01,4.010e-01
7.775e-01,3.795e-01
7.825e-01,3.591e-01
7.875e-01,3.395e-01
7.925e-01,3.208e-01
7.975e-01,3.030e-01
8.025e-01,2.861e-01
8.075e-01,2.699e-01
8.125e-01,2.546e-01
8.175e-01,2.400e-01
8.225e-01,2.261e-01
8.275e-01,2.130e-01
8.325e-01,2.005e-01
8.375e-01,1.887e-01
8.425e-01,1.775e-01
8.475e-01,1.668e-01
8.525e-01,1.568e-01
8.575e-01,1.473e-01
8.625e-01,1.383e-01
8.675e-01,1.298e-01
8.725e-01,1.218e-01
8.775e-01,1.143e-01
8.825e-01,1.071e-01
8.875e-01,1.004e-01
8.925e-01,9.407e-02
8.975e-01,8.810e-02
9.025e-01,8.249e-02
9.075e-01,7.721e-02
9.125e-01,7.224e-02
9.175e-01,6.757e-02
9.225e-01,6.318e-02
9.275e-01,5.906e-02
9.325e-01,5.519e-02
9.375e-01,5.156e-02
9.425e-01,4.815e-02
9.475e-01,4.496e-02
9.525e-01,4.196e-02
9.575e-01,3.916e-02
9.625e-01,3.653e-02
9.675e-01,3.407e-02
9.725e-01,3.177e-02
9.775e-01,2.961e-02
9.825e-01,2.760e-02
9.875e-01,2.571e-02
9.925e-01,2.395e-02
9.975e-01,2.230e-02
