transmittance,probability_density
2.500e-03,6.440e-10
7.500e-03,2.041e-05
1.250e-02,5.583e-04
1.750e-02,3.020e-03
2.250e-02,8.470e-03
2.750e-02,1.705e-02
3.250e-02,2.832e-02
3.750e-02,4.161e-02
4.250e-02,5.620e-02
4.750e-02,7.145e-02
5.250e-02,8.684e-02
5.750e-02,1.020e-01
6.250e-02,1.168e-01
6.750e-02,1.311e-01
7.250e-02,1.450e-01
7.750e-02,1.584e-01
8.250e-02,1.715e-01
8.750e-02,1.844e-01
9.250e-02,1.972e-01
9.750e-02,2.099e-01
1.025e-01,2.228e-01
1.075e-01,2.358e-01
1.125e-01,2.490e-01
1.175e-01,2.625e-01
1.225e-01,2.763e-01
1.275e-01,2.904e-01
1.325e-01,3.051e-01
1.375e-01,3.202e-01
1.425e-01,3.358e-01
1.475e-01,3.520e-01
1.525e-01,3.688e-01
1.575e-01,3.863e-01
1.625e-01,4.043e-01
1.675e-01,4.230e-01
1.725e-01,4.422e-01
1.775e-01,4.620e-01
1.825e-01,4.823e-01
1.875e-01,5.031e-01
1.925e-01,5.242e-01
1.975e-01,5.458e-01
2.025e-01,5.677e-01
2.075e-01,5.899e-01
2.125e-01,6.125e-01
2.175e-01,6.355e-01
2.225e-01,6.589e-01
2.275e-01,6.827e-01
2.325e-01,7.071e-01
2.375e-01,7.320e-01
2.425e-01,7.576e-01
2.475e-01,7.839e-01
2.525e-01,8.110e-01
2.575e-01,8.390e-01
2.625e-01,8.679e-01
2.675e-01,8.977e-01
2.725e-01,9.286e-01
2.775e-01,9.605e-01
2.825e-01,9.934e-01
2.875e-01,1.027e+00
2.925e-01,1.062e+00
2.975e-01,1.098e+00
3.025e-01,1.135e+00
3.075e-01,1.173e+00
3.125e-01,1.212e+00
3.175e-01,1.252e+00
3.225e-01,1.292e+00
3.275e-01,1.333e+00
3.325e-01,1.375e+00
3.375e-01,1.418e+00
3.425e-01,1.461e+00
3.475e-01,1.504e+00
3.525e-01,1.548e+00
3.575e-01,1.592e+00
3.625e-01,1.636e+00
3.675e-01,1.680e+00
3.725e-01,1.725e+00
3.775e-01,1.769e+00
3.825e-01,1.813e+00
3.875e-01,1.857e+00
3.925e-01,1.901e+00
3.975e-01,1.944e+00
4.025e-01,1.987e+00
4.075e-01,2.029e+00
4.125e-01,2.070e+00
4.175e-01,2.111e+00
4.225e-01,2.150e+00
4.275e-01,2.188e+00
4.325e-01,2.224e+00
4.375e-01,2.260e+00
4.425e-01,2.293e+00
4.475e-01,2.325e+00
4.525e-01,2.355e+00
4.575e-01,2.383e+00
4.625e-01,2.408e+00
4.675e-01,2.432e+00
4.725e-01,2.453e+00
4.775e-01,2.471e+00
4.825e-01,2.487e+00
4.875e-01,2.500e+00
4.925e-01,2.510e+00
4.975e-01,2.517e+00
5.025e-01,2.522e+00
5.075e-01,2.523e+00
5.125e-01,2.521e+00
5.175e-01,2.517e+00
5.225e-01,2.509e+00
5.275e-01,2.498e+00
5.325e-01,2.484e+00
5.375e-01,2.468e+00
5.425e-01,2.448e+00
5.475e-01,2.426e+00
5.525e-01,2.401e+00
5.575e-01,2.373e+00
5.625e-01,2.343e+00
5.675e-01,2.310e+00
5.725e-01,2.275e+00
5.775e-01,2.238e+00
5.825e-01,2.199e+00
5.875e-01,2.158e+00
5.925e-01,2.115e+00
5.975e-01,2.071e+00
6.025e-01,2.025e+00
6.075e-01,1.979e+00
6.125e-01,1.931e+00
6.175e-01,1.882e+00
6.225e-01,1.832e+00
6.275e-01,1.782e+00
6.325e-01,1.731e+00
6.375e-01,1.680e+00
6.425e-01,1.629e+00
6.475e-01,1.577e+00
6.525e-01,1.526e+00
6.575e-01,1.475e+00
6.625e-01,1.424e+00
6.675e-01,1.374e+00
6.725e-01,1.324e+00
6.775e-01,1.274e+00
6.825e-01,1.226e+00
6.875e-01,1.178e+00
6.925e-01,1.131e+00
6.975e-01,1.085e+00
7.025e-01,1.040e+00
7.075e-01,9.958e-01
7.125e-01,9.528e-01
7.175e-01,9.108e-01
7.225e-01,8.700e-01
7.275e-01,8.304e-01
7.325e-01,7.919e-01
7.375e-01,7.546e-01
7.425e-01,7.185e-01
7.475e-01,6.837e-01
7.525e-01,6.500e-01
7.575e-01,6.175e-01
7.625e-01,5.863e-01
7.675e-01,5.562e-01
7.725e-01,5.273e-01
7.775e-01,4.996e-01
7.825e-01,4.730e-01
7.875e-01,4.476e-01
7.925e-01,4.232e-01
7.975e-01,3.999e-01
8.025e-01,3.776e-01
8.075e-01,3.564e-01
8.125e-01,3.362e-01
8.175e-01,3.169e-01
8.225e-01,2.986e-01
8.275e-01,2.811e-01
8.325e-01,2.646e-01
8.375e-01,2.488e-01
8.425e-01,2.339e-01
8.475e-01,2.198e-01
8.525e-01,2.064e-01
8.575e-01,1.937e-01
8.625e-01,1.817e-01
8.675e-01,1.704e-01
8.725e-01,1.597e-01
8.775e-01,1.496e-01
8.825e-01,1.400e-01
8.875e-01,1.311e-01
8.925e-01,1.226e-01
8.975e-01,1.146e-01
9.025e-01,1.072e-01
9.075e-01,1.001e-01
9.125e-01,9.349e-02
9.175e-01,8.727e-02
9.225e-01,8.143e-02
9.275e-01,7.596e-02
9.325e-01,7.082e-02
9.375e-01,6.601e-02
9.425e-01,6.150e-02
9.475e-01,5.728e-02
9.525e-01,5.333e-02
9.575e-01,4.963e-02
9.625e-01,4.617e-02
9.675e-01,4.294e-02
9.725e-01,3.993e-02
9.775e-01,3.711e-02
9.825e-01,3.448e-02
9.875e-01,3.203e-02
9.925e-01,2.974e-02
9.975e-01,2.761e-02
