transmittance,probability_density
2.500e-03,3.872e-13
7.500e-03,3.187e-07
1.250e-02,2.883e-05
1.750e-02,3.028e-04
2.250e-02,1.291e-03
2.750e-02,3.443e-03
3.250e-02,6.986e-03
3.750e-02,1.194e-02
4.250e-02,1.822e-02
4.750e-02,2.565e-02
5.250e-02,3.403e-02
5.750e-02,4.315e-02
6.250e-02,5.276e-02
6.750e-02,6.265e-02
7.250e-02,7.263e-02
7.750e-02,8.258e-02
8.250e-02,9.240e-02
8.750e-02,1.020e-01
9.250e-02,1.115e-01
9.750e-02,1.208e-01
1.025e-01,1.299e-01
1.075e-01,1.389e-01
1.125e-01,1.479e-01
1.175e-01,1.570e-01
1.225e-01,1.661e-01
1.275e-01,1.753e-01
1.325e-01,1.847e-01
1.375e-01,1.944e-01
1.425e-01,2.043e-01
1.475e-01,2.146e-01
1.525e-01,2.251e-01
1.575e-01,2.360e-01
1.625e-01,2.473e-01
1.675e-01,2.590e-01
1.725e-01,2.712e-01
1.775e-01,2.838e-01
1.825e-01,2.969e-01
1.875e-01,3.106e-01
1.925e-01,3.248e-01
1.975e-01,3.395e-01
2.025e-01,3.549e-01
2.075e-01,3.708e-01
2.125e-01,3.874e-01
2.175e-01,4.045e-01
2.225e-01,4.221e-01
2.275e-01,4.403e-01
2.325e-01,4.590e-01
2.375e-01,4.782e-01
2.425e-01,4.978e-01
2.475e-01,5.178e-01
2.525e-01,5.382e-01
2.575e-01,5.591e-01
2.625e-01,5.804e-01
2.675e-01,6.020e-01
2.725e-01,6.242e-01
2.775e-01,6.468e-01
2.825e-01,6.699e-01
2.875e-01,6.936e-01
2.925e-01,7.178e-01
2.975e-01,7.428e-01
3.025e-01,7.684e-01
3.075e-01,7.948e-01
3.125e-01,8.221e-01
3.175e-01,8.501e-01
3.225e-01,8.791e-01
3.275e-01,9.090e-01
3.325e-01,9.398e-01
3.375e-01,9.716e-01
3.425e-01,1.004e+00
3.475e-01,1.038e+00
3.525e-01,1.073e+00
3.575e-01,1.108e+00
3.625e-01,1.145e+00
3.675e-01,1.182e+00
3.725e-01,1.220e+00
3.775e-01,1.259e+00
3.825e-01,1.299e+00
3.875e-01,1.340e+00
3.925e-01,1.381e+00
3.975e-01,1.423e+00
4.025e-01,1.466e+00
4.075e-01,1.509e+00
4.125e-01,1.553e+00
4.175e-01,1.597e+00
4.225e-01,1.641e+00
4.275e-01,1.686e+00
4.325e-01,1.731e+00
4.375e-01,1.777e+00
4.425e-01,1.822e+00
4.475e-01,1.868e+00
4.525e-01,1.913e+00
4.575e-01,1.958e+00
4.625e-01,2.003e+00
4.675e-01,2.047e+00
4.725e-01,2.091e+00
4.775e-01,2.134e+00
4.825e-01,2.176e+00
4.875e-01,2.217e+00
4.925e-01,2.257e+00
4.975e-01,2.295e+00
5.025e-01,2.332e+00
5.075e-01,2.367e+00
5.125e-01,2.401e+00
5.175e-01,2.432e+00
5.225e-01,2.461e+00
5.275e-01,2.487e+00
5.325e-01,2.511e+00
5.375e-01,2.532e+00
5.425e-01,2.551e+00
5.475e-01,2.566e+00
5.525e-01,2.578e+00
5.575e-01,2.587e+00
5.625e-01,2.593e+00
5.675e-01,2.595e+00
5.725e-01,2.594e+00
5.775e-01,2.590e+00
5.825e-01,2.582e+00
5.875e-01,2.570e+00
5.925e-01,2.556e+00
5.975e-01,2.538e+00
6.025e-01,2.516e+00
6.075e-01,2.491e+00
6.125e-01,2.464e+00
6.175e-01,2.433e+00
6.225e-01,2.399e+00
6.275e-01,2.363e+00
6.325e-01,2.324e+00
6.375e-01,2.282e+00
6.425e-01,2.238e+00
6.475e-01,2.192e+00
6.525e-01,2.145e+00
6.575e-01,2.095e+00
6.625e-01,2.044e+00
6.675e-01,1.992e+00
6.725e-01,1.938e+00
6.775e-01,1.884e+00
6.825e-01,1.828e+00
6.875e-01,1.773e+00
6.925e-01,1.716e+00
6.975e-01,1.660e+00
7.025e-01,1.603e+00
7.075e-01,1.547e+00
7.125e-01,1.490e+00
7.175e-01,1.434e+00
7.225e-01,1.379e+00
7.275e-01,1.324e+00
7.325e-01,1.270e+00
7.375e-01,1.217e+00
7.425e-01,1.165e+00
7.475e-01,1.114e+00
7.525e-01,1.064e+00
7.575e-01,1.015e+00
7.625e-01,9.671e-01
7.675e-01,9.208e-01
7.725e-01,8.758e-01
7.775e-01,8.322e-01
7.825e-01,7.900e-01
7.875e-01,7.492e-01
7.925e-01,7.099e-01
7.975e-01,6.720e-01
8.025e-01,6.356e-01
8.075e-01,6.006e-01
8.125e-01,5.670e-01
8.175e-01,5.348e-01
8.225e-01,5.040e-01
8.275e-01,4.746e-01
8.325e-01,4.466e-01
8.375e-01,4.198e-01
8.425e-01,3.944e-01
8.475e-01,3.701e-01
8.525e-01,3.472e-01
8.575e-01,3.253e-01
8.625e-01,3.047e-01
8.675e-01,2.851e-01
8.725e-01,2.666e-01
8.775e-01,2.491e-01
8.825e-01,2.326e-01
8.875e-01,2.171e-01
8.925e-01,2.024e-01
8.975e-01,1.886e-01
9.025e-01,1.757e-01
9.075e-01,1.635e-01
9.125e-01,1.521e-01
9.175e-01,1.413e-01
9.225e-01,1.313e-01
9.275e-01,1.219e-01
9.325e-01,1.131e-01
9.375e-01,1.049e-01
9.425e-01,9.719e-02
9.475e-01,9.002e-02
9.525e-01,8.333e-02
9.575e-01,7.710e-02
9.625e-01,7.130e-02
9.675e-01,6.590e-02
9.725e-01,6.087e-02
9.775e-01,5.620e-02
9.825e-01,5.187e-02
9.875e-01,4.784e-02
9.925e-01,4.411e-02
9.975e-01,4.064e-02
