transmittance,probability_density
2.500e-03,1.856e-50
7.500e-03,4.933e-29
1.250e-02,3.090e-21
1.750e-02,7.498e-17
2.250e-02,5.769e-14
2.750e-02,6.713e-12
3.250e-02,2.427e-10
3.750e-02,4.010e-09
4.250e-02,3.807e-08
4.750e-02,2.403e-07
5.250e-02,1.111e-06
5.750e-02,4.033e-06
6.250e-02,1.207e-05
6.750e-02,3.092e-05
7.250e-02,6.968e-05
7.750e-02,1.412e-04
8.250e-02,2.617e-04
8.750e-02,4.496e-04
9.250e-02,7.243e-04
9.750e-02,1.104e-03
1.025e-01,1.604e-03
1.075e-01,2.236e-03
1.125e-01,3.007e-03
1.175e-01,3.919e-03
1.225e-01,4.971e-03
1.275e-01,6.160e-03
1.325e-01,7.483e-03
1.375e-01,8.937e-03
1.425e-01,1.052e-02
1.475e-01,1.224e-02
1.525e-01,1.409e-02
1.575e-01,1.609e-02
1.625e-01,1.825e-02
1.675e-01,2.058e-02
1.725e-01,2.308e-02
1.775e-01,2.576e-02
1.825e-01,2.862e-02
1.875e-01,3.166e-02
1.925e-01,3.486e-02
1.975e-01,3.822e-02
2.025e-01,4.171e-02
2.075e-01,4.532e-02
2.125e-01,4.903e-02
2.175e-01,5.281e-02
2.225e-01,5.665e-02
2.275e-01,6.054e-02
2.325e-01,6.447e-02
2.375e-01,6.842e-02
2.425e-01,7.241e-02
2.475e-01,7.643e-02
2.525e-01,8.050e-02
2.575e-01,8.463e-02
2.625e-01,8.883e-02
2.675e-01,9.312e-02
2.725e-01,9.753e-02
2.775e-01,1.021e-01
2.825e-01,1.067e-01
2.875e-01,1.116e-01
2.925e-01,1.166e-01
2.975e-01,1.219e-01
3.025e-01,1.274e-01
3.075e-01,1.332e-01
3.125e-01,1.392e-01
3.175e-01,1.455e-01
3.225e-01,1.522e-01
3.275e-01,1.591e-01
3.325e-01,1.664e-01
3.375e-01,1.741e-01
3.425e-01,1.822e-01
3.475e-01,1.906e-01
3.525e-01,1.995e-01
3.575e-01,2.087e-01
3.625e-01,2.185e-01
3.675e-01,2.286e-01
3.725e-01,2.392e-01
3.775e-01,2.503e-01
3.825e-01,2.619e-01
3.875e-01,2.740e-01
3.925e-01,2.865e-01
3.975e-01,2.996e-01
4.025e-01,3.131e-01
4.075e-01,3.272e-01
4.125e-01,3.418e-01
4.175e-01,3.569e-01
4.225e-01,3.726e-01
4.275e-01,3.888e-01
4.325e-01,4.055e-01
4.375e-01,4.228e-01
4.425e-01,4.406e-01
4.475e-01,4.590e-01
4.525e-01,4.780e-01
4.575e-01,4.976e-01
4.625e-01,5.178e-01
4.675e-01,5.386e-01
4.725e-01,5.602e-01
4.775e-01,5.824e-01
4.825e-01,6.054e-01
4.875e-01,6.292e-01
4.925e-01,6.539e-01
4.975e-01,6.794e-01
5.025e-01,7.059e-01
5.075e-01,7.334e-01
5.125e-01,7.619e-01
5.175e-01,7.916e-01
5.225e-01,8.225e-01
5.275e-01,8.546e-01
5.325e-01,8.880e-01
5.375e-01,9.227e-01
5.425e-01,9.590e-01
5.475e-01,9.967e-01
5.525e-01,1.036e+00
5.575e-01,1.077e+00
5.625e-01,1.120e+00
5.675e-01,1.164e+00
5.725e-01,1.210e+00
5.775e-01,1.258e+00
5.825e-01,1.309e+00
5.875e-01,1.361e+00
5.925e-01,1.415e+00
5.975e-01,1.471e+00
6.025e-01,1.530e+00
6.075e-01,1.591e+00
6.125e-01,1.654e+00
6.175e-01,1.720e+00
6.225e-01,1.788e+00
6.275e-01,1.858e+00
6.325e-01,1.931e+00
6.375e-01,2.005e+00
6.425e-01,2.082e+00
6.475e-01,2.161e+00
6.525e-01,2.242e+00
6.575e-01,2.325e+00
6.625e-01,2.408e+00
6.675e-01,2.493e+00
6.725e-01,2.579e+00
6.775e-01,2.664e+00
6.825e-01,2.749e+00
6.875e-01,2.833e+00
6.925e-01,2.916e+00
6.975e-01,2.997e+00
7.025e-01,3.074e+00
7.075e-01,3.149e+00
7.125e-01,3.218e+00
7.175e-01,3.283e+00
7.225e-01,3.342e+00
7.275e-01,3.395e+00
7.325e-01,3.440e+00
7.375e-01,3.478e+00
7.425e-01,3.507e+00
7.475e-01,3.528e+00
7.525e-01,3.539e+00
7.575e-01,3.540e+00
7.625e-01,3.532e+00
7.675e-01,3.514e+00
7.725e-01,3.486e+00
7.775e-01,3.449e+00
7.825e-01,3.401e+00
7.875e-01,3.345e+00
7.925e-01,3.279e+00
7.975e-01,3.205e+00
8.025e-01,3.124e+00
8.075e-01,3.035e+00
8.125e-01,2.940e+00
8.175e-01,2.839e+00
8.225e-01,2.734e+00
8.275e-01,2.624e+00
8.325e-01,2.512e+00
8.375e-01,2.397e+00
8.425e-01,2.280e+00
8.475e-01,2.163e+00
8.525e-01,2.046e+00
8.575e-01,1.929e+00
8.625e-01,1.814e+00
8.675e-01,1.701e+00
8.725e-01,1.591e+00
8.775e-01,1.483e+00
8.825e-01,1.379e+00
8.875e-01,1.279e+00
8.925e-01,1.183e+00
8.975e-01,1.091e+00
9.025e-01,1.004e+00
9.075e-01,9.208e-01
9.125e-01,8.427e-01
9.175e-01,7.693e-01
9.225e-01,7.005e-01
9.275e-01,6.363e-01
9.325e-01,5.766e-01
9.375e-01,5.212e-01
9.425e-01,4.701e-01
9.475e-01,4.230e-01
9.525e-01,3.797e-01
9.575e-01,3.401e-01
9.625e-01,3.040e-01
9.675e-01,2.711e-01
9.725e-01,2.413e-01
9.775e-01,2.143e-01
9.825e-01,1.899e-01
9.875e-01,1.680e-01
9.925e-01,1.483e-01
9.975e-01,1.307e-01
