transmittance,probability_density
2.500e-03,3.510e-115
7.500e-03,2.100e-68
1.250e-02,6.414e-51
1.750e-02,7.001e-41
2.250e-02,3.769e-34
2.750e-02,3.023e-29
3.250e-02,1.755e-25
3.750e-02,1.731e-22
4.250e-02,4.818e-20
4.750e-02,5.233e-18
5.250e-02,2.760e-16
5.750e-02,8.245e-15
6.250e-02,1.559e-13
6.750e-02,2.030e-12
7.250e-02,1.937e-11
7.750e-02,1.425e-10
8.250e-02,8.404e-10
8.750e-02,4.100e-09
9.250e-02,1.698e-08
9.750e-02,6.099e-08
1.025e-01,1.934e-07
1.075e-01,5.492e-07
1.125e-01,1.415e-06
1.175e-01,3.346e-06
1.225e-01,7.322e-06
1.275e-01,1.495e-05
1.325e-01,2.870e-05
1.375e-01,5.208e-05
1.425e-01,8.986e-05
1.475e-01,1.481e-04
1.525e-01,2.341e-04
1.575e-01,3.563e-04
1.625e-01,5.239e-04
1.675e-01,7.465e-04
1.725e-01,1.033e-03
1.775e-01,1.393e-03
1.825e-01,1.834e-03
1.875e-01,2.360e-03
1.925e-01,2.977e-03
1.975e-01,3.686e-03
2.025e-01,4.488e-03
2.075e-01,5.382e-03
2.125e-01,6.364e-03
2.175e-01,7.433e-03
2.225e-01,8.586e-03
2.275e-01,9.822e-03
2.325e-01,1.114e-02
2.375e-01,1.255e-02
2.425e-01,1.404e-02
2.475e-01,1.563e-02
2.525e-01,1.733e-02
2.575e-01,1.915e-02
2.625e-01,2.109e-02
2.675e-01,2.317e-02
2.725e-01,2.539e-02
2.775e-01,2.777e-02
2.825e-01,3.031e-02
2.875e-01,3.300e-02
2.925e-01,3.586e-02
2.975e-01,3.886e-02
3.025e-01,4.201e-02
3.075e-01,4.528e-02
3.125e-01,4.867e-02
3.175e-01,5.217e-02
3.225e-01,5.576e-02
3.275e-01,5.944e-02
3.325e-01,6.318e-02
3.375e-01,6.699e-02
3.425e-01,7.086e-02
3.475e-01,7.480e-02
3.525e-01,7.881e-02
3.575e-01,8.289e-02
3.625e-01,8.707e-02
3.675e-01,9.135e-02
3.725e-01,9.575e-02
3.775e-01,1.003e-01
3.825e-01,1.050e-01
3.875e-01,1.099e-01
3.925e-01,1.150e-01
3.975e-01,1.203e-01
4.025e-01,1.258e-01
4.075e-01,1.317e-01
4.125e-01,1.378e-01
4.175e-01,1.442e-01
4.225e-01,1.509e-01
4.275e-01,1.580e-01
4.325e-01,1.655e-01
4.375e-01,1.733e-01
4.425e-01,1.816e-01
4.475e-01,1.903e-01
4.525e-01,1.994e-01
4.575e-01,2.090e-01
4.625e-01,2.191e-01
4.675e-01,2.296e-01
4.725e-01,2.407e-01
4.775e-01,2.523e-01
4.825e-01,2.645e-01
4.875e-01,2.772e-01
4.925e-01,2.905e-01
4.975e-01,3.045e-01
5.025e-01,3.190e-01
5.075e-01,3.341e-01
5.125e-01,3.500e-01
5.175e-01,3.665e-01
5.225e-01,3.837e-01
5.275e-01,4.016e-01
5.325e-01,4.203e-01
5.375e-01,4.397e-01
5.425e-01,4.600e-01
5.475e-01,4.812e-01
5.525e-01,5.032e-01
5.575e-01,5.262e-01
5.625e-01,5.503e-01
5.675e-01,5.754e-01
5.725e-01,6.017e-01
5.775e-01,6.292e-01
5.825e-01,6.581e-01
5.875e-01,6.883e-01
5.925e-01,7.200e-01
5.975e-01,7.533e-01
6.025e-01,7.883e-01
6.075e-01,8.251e-01
6.125e-01,8.638e-01
6.175e-01,9.045e-01
6.225e-01,9.473e-01
6.275e-01,9.924e-01
6.325e-01,1.040e+00
6.375e-01,1.090e+00
6.425e-01,1.143e+00
6.475e-01,1.198e+00
6.525e-01,1.257e+00
6.575e-01,1.319e+00
6.625e-01,1.384e+00
6.675e-01,1.452e+00
6.725e-01,1.525e+00
6.775e-01,1.601e+00
6.825e-01,1.681e+00
6.875e-01,1.766e+00
6.925e-01,1.855e+00
6.975e-01,1.948e+00
7.025e-01,2.047e+00
7.075e-01,2.150e+00
7.125e-01,2.258e+00
7.175e-01,2.370e+00
7.225e-01,2.488e+00
7.275e-01,2.610e+00
7.325e-01,2.736e+00
7.375e-01,2.865e+00
7.425e-01,2.998e+00
7.475e-01,3.133e+00
7.525e-01,3.269e+00
7.575e-01,3.405e+00
7.625e-01,3.539e+00
7.675e-01,3.671e+00
7.725e-01,3.799e+00
7.775e-01,3.920e+00
7.825e-01,4.033e+00
7.875e-01,4.136e+00
7.925e-01,4.228e+00
7.975e-01,4.305e+00
8.025e-01,4.368e+00
8.075e-01,4.413e+00
8.125e-01,4.440e+00
8.175e-01,4.448e+00
8.225e-01,4.437e+00
8.275e-01,4.405e+00
8.325e-01,4.352e+00
8.375e-01,4.280e+00
8.425e-01,4.188e+00
8.475e-01,4.079e+00
8.525e-01,3.952e+00
8.575e-01,3.810e+00
8.625e-01,3.655e+00
8.675e-01,3.488e+00
8.725e-01,3.312e+00
8.775e-01,3.129e+00
8.825e-01,2.942e+00
8.875e-01,2.751e+00
8.925e-01,2.561e+00
8.975e-01,2.371e+00
9.025e-01,2.185e+00
9.075e-01,2.004e+00
9.125e-01,1.829e+00
9.175e-01,1.661e+00
9.225e-01,1.502e+00
9.275e-01,1.352e+00
9.325e-01,1.211e+00
9.375e-01,1.080e+00
9.425e-01,9.588e-01
9.475e-01,8.477e-01
9.525e-01,7.462e-01
9.575e-01,6.542e-01
9.625e-01,5.712e-01
9.675e-01,4.968e-01
9.725e-01,4.304e-01
9.775e-01,3.714e-01
9.825e-01,3.194e-01
9.875e-01,2.736e-01
9.925e-01,2.336e-01
9.975e-01,1.988e-01
