transmittance,probability_density
2.500e-03,1.109e-20
7.500e-03,1.625e-11
1.250e-02,2.359e-08
1.750e-02,1.198e-06
2.250e-02,1.449e-05
2.750e-02,8.124e-05
3.250e-02,2.860e-04
3.750e-02,7.422e-04
4.250e-02,1.560e-03
4.750e-02,2.819e-03
5.250e-02,4.561e-03
5.750e-02,6.795e-03
6.250e-02,9.512e-03
6.750e-02,1.270e-02
7.250e-02,1.633e-02
7.750e-02,2.041e-02
8.250e-02,2.489e-02
8.750e-02,2.975e-02
9.250e-02,3.494e-02
9.750e-02,4.041e-02
1.025e-01,4.609e-02
1.075e-01,5.193e-02
1.125e-01,5.787e-02
1.175e-01,6.385e-02
1.225e-01,6.984e-02
1.275e-01,7.582e-02
1.325e-01,8.176e-02
1.375e-01,8.768e-02
1.425e-01,9.356e-02
1.475e-01,9.944e-02
1.525e-01,1.053e-01
1.575e-01,1.112e-01
1.625e-01,1.172e-01
1.675e-01,1.233e-01
1.725e-01,1.295e-01
1.775e-01,1.359e-01
1.825e-01,1.425e-01
1.875e-01,1.492e-01
1.925e-01,1.563e-01
1.975e-01,1.636e-01
2.025e-01,1.712e-01
2.075e-01,1.792e-01
2.125e-01,1.874e-01
2.175e-01,1.961e-01
2.225e-01,2.051e-01
2.275e-01,2.145e-01
2.325e-01,2.243e-01
2.375e-01,2.345e-01
2.425e-01,2.452e-01
2.475e-01,2.563e-01
2.525e-01,2.679e-01
2.575e-01,2.800e-01
2.625e-01,2.925e-01
2.675e-01,3.056e-01
2.725e-01,3.192e-01
2.775e-01,3.334e-01
2.825e-01,3.481e-01
2.875e-01,3.633e-01
2.925e-01,3.790e-01
2.975e-01,3.953e-01
3.025e-01,4.121e-01
3.075e-01,4.295e-01
3.125e-01,4.473e-01
3.175e-01,4.655e-01
3.225e-01,4.843e-01
3.275e-01,5.035e-01
3.325e-01,5.232e-01
3.375e-01,5.433e-01
3.425e-01,5.640e-01
3.475e-01,5.850e-01
3.525e-01,6.066e-01
3.575e-01,6.287e-01
3.625e-01,6.514e-01
3.675e-01,6.747e-01
3.725e-01,6.986e-01
3.775e-01,7.231e-01
3.825e-01,7.484e-01
3.875e-01,7.744e-01
3.925e-01,8.012e-01
3.975e-01,8.289e-01
4.025e-01,8.574e-01
4.075e-01,8.868e-01
4.125e-01,9.172e-01
4.175e-01,9.486e-01
4.225e-01,9.809e-01
4.275e-01,1.014e+00
4.325e-01,1.049e+00
4.375e-01,1.084e+00
4.425e-01,1.121e+00
4.475e-01,1.158e+00
4.525e-01,1.197e+00
4.575e-01,1.236e+00
4.625e-01,1.277e+00
4.675e-01,1.319e+00
4.725e-01,1.362e+00
4.775e-01,1.406e+00
4.825e-01,1.450e+00
4.875e-01,1.496e+00
4.925e-01,1.543e+00
4.975e-01,1.591e+00
5.025e-01,1.640e+00
5.075e-01,1.690e+00
5.125e-01,1.740e+00
5.175e-01,1.791e+00
5.225e-01,1.843e+00
5.275e-01,1.895e+00
5.325e-01,1.948e+00
5.375e-01,2.001e+00
5.425e-01,2.055e+00
5.475e-01,2.108e+00
5.525e-01,2.161e+00
5.575e-01,2.214e+00
5.625e-01,2.267e+00
5.675e-01,2.318e+00
5.725e-01,2.369e+00
5.775e-01,2.418e+00
5.825e-01,2.466e+00
5.875e-01,2.512e+00
5.925e-01,2.556e+00
5.975e-01,2.597e+00
6.025e-01,2.636e+00
6.075e-01,2.672e+00
6.125e-01,2.705e+00
6.175e-01,2.734e+00
6.225e-01,2.760e+00
6.275e-01,2.782e+00
6.325e-01,2.799e+00
6.375e-01,2.813e+00
6.425e-01,2.822e+00
6.475e-01,2.827e+00
6.525e-01,2.827e+00
6.575e-01,2.822e+00
6.625e-01,2.812e+00
6.675e-01,2.798e+00
6.725e-01,2.779e+00
6.775e-01,2.756e+00
6.825e-01,2.728e+00
6.875e-01,2.695e+00
6.925e-01,2.659e+00
6.975e-01,2.618e+00
7.025e-01,2.573e+00
7.075e-01,2.525e+00
7.125e-01,2.473e+00
7.175e-01,2.418e+00
7.225e-01,2.360e+00
7.275e-01,2.300e+00
7.325e-01,2.237e+00
7.375e-01,2.173e+00
7.425e-01,2.106e+00
7.475e-01,2.038e+00
7.525e-01,1.969e+00
7.575e-01,1.900e+00
7.625e-01,1.829e+00
7.675e-01,1.759e+00
7.725e-01,1.688e+00
7.775e-01,1.618e+00
7.825e-01,1.548e+00
7.875e-01,1.479e+00
7.925e-01,1.410e+00
7.975e-01,1.343e+00
8.025e-01,1.277e+00
8.075e-01,1.213e+00
8.125e-01,1.150e+00
8.175e-01,1.089e+00
8.225e-01,1.029e+00
8.275e-01,9.715e-01
8.325e-01,9.158e-01
8.375e-01,8.621e-01
8.425e-01,8.105e-01
8.475e-01,7.609e-01
8.525e-01,7.135e-01
8.575e-01,6.681e-01
8.625e-01,6.247e-01
8.675e-01,5.835e-01
8.725e-01,5.443e-01
8.775e-01,5.071e-01
8.825e-01,4.719e-01
8.875e-01,4.385e-01
8.925e-01,4.071e-01
8.975e-01,3.775e-01
9.025e-01,3.496e-01
9.075e-01,3.234e-01
9.125e-01,2.989e-01
9.175e-01,2.759e-01
9.225e-01,2.544e-01
9.275e-01,2.343e-01
9.325e-01,2.156e-01
9.375e-01,1.982e-01
9.425e-01,1.820e-01
9.475e-01,1.670e-01
9.525e-01,1.530e-01
9.575e-01,1.401e-01
9.625e-01,1.282e-01
9.675e-01,1.171e-01
9.725e-01,1.069e-01
9.775e-01,9.754e-02
9.825e-01,8.890e-02
9.875e-01,8.095e-02
9.925e-01,7.365e-02
9.975e-01,6.695e-02
