transmittance,probability_density
2.500e-03,1.501e-41
7.500e-03,9.946e-24
1.250e-02,2.673e-17
1.750e-02,1.042e-13
2.250e-02,2.326e-11
2.750e-02,1.090e-09
3.250e-02,1.951e-08
3.750e-02,1.837e-07
4.250e-02,1.100e-06
4.750e-02,4.720e-06
5.250e-02,1.575e-05
5.750e-02,4.322e-05
6.250e-02,1.015e-04
6.750e-02,2.105e-04
7.250e-02,3.939e-04
7.750e-02,6.773e-04
8.250e-02,1.085e-03
8.750e-02,1.637e-03
9.250e-02,2.348e-03
9.750e-02,3.227e-03
1.025e-01,4.276e-03
1.075e-01,5.494e-03
1.125e-01,6.876e-03
1.175e-01,8.419e-03
1.225e-01,1.012e-02
1.275e-01,1.198e-02
1.325e-01,1.401e-02
1.375e-01,1.621e-02
1.425e-01,1.859e-02
1.475e-01,2.116e-02
1.525e-01,2.392e-02
1.575e-01,2.688e-02
1.625e-01,3.003e-02
1.675e-01,3.337e-02
1.725e-01,3.687e-02
1.775e-01,4.052e-02
1.825e-01,4.430e-02
1.875e-01,4.818e-02
1.925e-01,5.214e-02
1.975e-01,5.616e-02
2.025e-01,6.023e-02
2.075e-01,6.433e-02
2.125e-01,6.845e-02
2.175e-01,7.260e-02
2.225e-01,7.678e-02
2.275e-01,8.099e-02
2.325e-01,8.525e-02
2.375e-01,8.957e-02
2.425e-01,9.398e-02
2.475e-01,9.849e-02
2.525e-01,1.031e-01
2.575e-01,1.079e-01
2.625e-01,1.128e-01
2.675e-01,1.179e-01
2.725e-01,1.233e-01
2.775e-01,1.288e-01
2.825e-01,1.346e-01
2.875e-01,1.407e-01
2.925e-01,1.471e-01
2.975e-01,1.538e-01
3.025e-01,1.608e-01
3.075e-01,1.682e-01
3.125e-01,1.759e-01
3.175e-01,1.840e-01
3.225e-01,1.925e-01
3.275e-01,2.014e-01
3.325e-01,2.107e-01
3.375e-01,2.204e-01
3.425e-01,2.306e-01
3.475e-01,2.413e-01
3.525e-01,2.524e-01
3.575e-01,2.639e-01
3.625e-01,2.760e-01
3.675e-01,2.886e-01
3.725e-01,3.016e-01
3.775e-01,3.152e-01
3.825e-01,3.293e-01
3.875e-01,3.439e-01
3.925e-01,3.590e-01
3.975e-01,3.746e-01
4.025e-01,3.907e-01
4.075e-01,4.074e-01
4.125e-01,4.245e-01
4.175e-01,4.422e-01
4.225e-01,4.605e-01
4.275e-01,4.792e-01
4.325e-01,4.986e-01
4.375e-01,5.185e-01
4.425e-01,5.390e-01
4.475e-01,5.601e-01
4.525e-01,5.819e-01
4.575e-01,6.043e-01
4.625e-01,6.275e-01
4.675e-01,6.514e-01
4.725e-01,6.762e-01
4.775e-01,7.017e-01
4.825e-01,7.282e-01
4.875e-01,7.557e-01
4.925e-01,7.841e-01
4.975e-01,8.136e-01
5.025e-01,8.442e-01
5.075e-01,8.760e-01
5.125e-01,9.090e-01
5.175e-01,9.433e-01
5.225e-01,9.790e-01
5.275e-01,1.016e+00
5.325e-01,1.054e+00
5.375e-01,1.094e+00
5.425e-01,1.136e+00
5.475e-01,1.179e+00
5.525e-01,1.224e+00
5.575e-01,1.270e+00
5.625e-01,1.319e+00
5.675e-01,1.369e+00
5.725e-01,1.421e+00
5.775e-01,1.474e+00
5.825e-01,1.530e+00
5.875e-01,1.588e+00
5.925e-01,1.647e+00
5.975e-01,1.709e+00
6.025e-01,1.773e+00
6.075e-01,1.838e+00
6.125e-01,1.906e+00
6.175e-01,1.975e+00
6.225e-01,2.046e+00
6.275e-01,2.118e+00
6.325e-01,2.192e+00
6.375e-01,2.267e+00
6.425e-01,2.343e+00
6.475e-01,2.420e+00
6.525e-01,2.497e+00
6.575e-01,2.574e+00
6.625e-01,2.650e+00
6.675e-01,2.725e+00
6.725e-01,2.799e+00
6.775e-01,2.870e+00
6.825e-01,2.939e+00
6.875e-01,3.005e+00
6.925e-01,3.067e+00
6.975e-01,3.125e+00
7.025e-01,3.178e+00
7.075e-01,3.225e+00
7.125e-01,3.266e+00
7.175e-01,3.300e+00
7.225e-01,3.328e+00
7.275e-01,3.348e+00
7.325e-01,3.360e+00
7.375e-01,3.364e+00
7.425e-01,3.360e+00
7.475e-01,3.347e+00
7.525e-01,3.326e+00
7.575e-01,3.297e+00
7.625e-01,3.259e+00
7.675e-01,3.214e+00
7.725e-01,3.161e+00
7.775e-01,3.100e+00
7.825e-01,3.032e+00
7.875e-01,2.958e+00
7.925e-01,2.878e+00
7.975e-01,2.793e+00
8.025e-01,2.703e+00
8.075e-01,2.609e+00
8.125e-01,2.511e+00
8.175e-01,2.411e+00
8.225e-01,2.308e+00
8.275e-01,2.204e+00
8.325e-01,2.100e+00
8.375e-01,1.995e+00
8.425e-01,1.890e+00
8.475e-01,1.787e+00
8.525e-01,1.685e+00
8.575e-01,1.584e+00
8.625e-01,1.486e+00
8.675e-01,1.391e+00
8.725e-01,1.299e+00
8.775e-01,1.210e+00
8.825e-01,1.124e+00
8.875e-01,1.042e+00
8.925e-01,9.636e-01
8.975e-01,8.892e-01
9.025e-01,8.187e-01
9.075e-01,7.521e-01
9.125e-01,6.894e-01
9.175e-01,6.306e-01
9.225e-01,5.756e-01
9.275e-01,5.243e-01
9.325e-01,4.766e-01
9.375e-01,4.323e-01
9.425e-01,3.914e-01
9.475e-01,3.536e-01
9.525e-01,3.189e-01
9.575e-01,2.871e-01
9.625e-01,2.579e-01
9.675e-01,2.313e-01
9.725e-01,2.070e-01
9.775e-01,1.850e-01
9.825e-01,1.650e-01
9.875e-01,1.469e-01
9.925e-01,1.306e-01
9.975e-01,1.159e-01
