transmittance,probability_density
2.500e-03,5.366e-28
7.500e-03,1.063e-15
1.250e-02,2.386e-11
1.750e-02,5.969e-09
2.250e-02,2.121e-07
2.750e-02,2.618e-06
3.250e-02,1.687e-05
3.750e-02,7.050e-05
4.250e-02,2.173e-04
4.750e-02,5.355e-04
5.250e-02,1.113e-03
5.750e-02,2.029e-03
6.250e-02,3.329e-03
6.750e-02,5.020e-03
7.250e-02,7.068e-03
7.750e-02,9.404e-03
8.250e-02,1.194e-02
8.750e-02,1.457e-02
9.250e-02,1.722e-02
9.750e-02,1.980e-02
1.025e-01,2.225e-02
1.075e-01,2.454e-02
1.125e-01,2.664e-02
1.175e-01,2.856e-02
1.225e-01,3.031e-02
1.275e-01,3.190e-02
1.325e-01,3.338e-02
1.375e-01,3.477e-02
1.425e-01,3.613e-02
1.475e-01,3.750e-02
1.525e-01,3.893e-02
1.575e-01,4.045e-02
1.625e-01,4.211e-02
1.675e-01,4.394e-02
1.725e-01,4.595e-02
1.775e-01,4.818e-02
1.825e-01,5.062e-02
1.875e-01,5.327e-02
1.925e-01,5.612e-02
1.975e-01,5.917e-02
2.025e-01,6.239e-02
2.075e-01,6.577e-02
2.125e-01,6.929e-02
2.175e-01,7.293e-02
2.225e-01,7.670e-02
2.275e-01,8.060e-02
2.325e-01,8.464e-02
2.375e-01,8.884e-02
2.425e-01,9.323e-02
2.475e-01,9.785e-02
2.525e-01,1.027e-01
2.575e-01,1.080e-01
2.625e-01,1.136e-01
2.675e-01,1.196e-01
2.725e-01,1.262e-01
2.775e-01,1.332e-01
2.825e-01,1.409e-01
2.875e-01,1.492e-01
2.925e-01,1.582e-01
2.975e-01,1.679e-01
3.025e-01,1.784e-01
3.075e-01,1.895e-01
3.125e-01,2.015e-01
3.175e-01,2.142e-01
3.225e-01,2.277e-01
3.275e-01,2.420e-01
3.325e-01,2.570e-01
3.375e-01,2.729e-01
3.425e-01,2.895e-01
3.475e-01,3.069e-01
3.525e-01,3.251e-01
3.575e-01,3.440e-01
3.625e-01,3.638e-01
3.675e-01,3.843e-01
3.725e-01,4.055e-01
3.775e-01,4.276e-01
3.825e-01,4.504e-01
3.875e-01,4.739e-01
3.925e-01,4.982e-01
3.975e-01,5.233e-01
4.025e-01,5.491e-01
4.075e-01,5.757e-01
4.125e-01,6.031e-01
4.175e-01,6.312e-01
4.225e-01,6.601e-01
4.275e-01,6.898e-01
4.325e-01,7.202e-01
4.375e-01,7.515e-01
4.425e-01,7.836e-01
4.475e-01,8.166e-01
4.525e-01,8.504e-01
4.575e-01,8.853e-01
4.625e-01,9.211e-01
4.675e-01,9.580e-01
4.725e-01,9.960e-01
4.775e-01,1.035e+00
4.825e-01,1.076e+00
4.875e-01,1.117e+00
4.925e-01,1.161e+00
4.975e-01,1.205e+00
5.025e-01,1.251e+00
5.075e-01,1.299e+00
5.125e-01,1.349e+00
5.175e-01,1.400e+00
5.225e-01,1.453e+00
5.275e-01,1.508e+00
5.325e-01,1.565e+00
5.375e-01,1.623e+00
5.425e-01,1.683e+00
5.475e-01,1.745e+00
5.525e-01,1.809e+00
5.575e-01,1.874e+00
5.625e-01,1.941e+00
5.675e-01,2.008e+00
5.725e-01,2.077e+00
5.775e-01,2.147e+00
5.825e-01,2.217e+00
5.875e-01,2.288e+00
5.925e-01,2.359e+00
5.975e-01,2.429e+00
6.025e-01,2.498e+00
6.075e-01,2.566e+00
6.125e-01,2.633e+00
6.175e-01,2.698e+00
6.225e-01,2.760e+00
6.275e-01,2.820e+00
6.325e-01,2.876e+00
6.375e-01,2.929e+00
6.425e-01,2.977e+00
6.475e-01,3.021e+00
6.525e-01,3.060e+00
6.575e-01,3.094e+00
6.625e-01,3.123e+00
6.675e-01,3.146e+00
6.725e-01,3.162e+00
6.775e-01,3.173e+00
6.825e-01,3.177e+00
6.875e-01,3.175e+00
6.925e-01,3.166e+00
6.975e-01,3.151e+00
7.025e-01,3.129e+00
7.075e-01,3.102e+00
7.125e-01,3.068e+00
7.175e-01,3.028e+00
7.225e-01,2.982e+00
7.275e-01,2.931e+00
7.325e-01,2.875e+00
7.375e-01,2.815e+00
7.425e-01,2.749e+00
7.475e-01,2.680e+00
7.525e-01,2.608e+00
7.575e-01,2.532e+00
7.625e-01,2.453e+00
7.675e-01,2.372e+00
7.725e-01,2.290e+00
7.775e-01,2.205e+00
7.825e-01,2.120e+00
7.875e-01,2.034e+00
7.925e-01,1.948e+00
7.975e-01,1.862e+00
8.025e-01,1.777e+00
8.075e-01,1.692e+00
8.125e-01,1.609e+00
8.175e-01,1.527e+00
8.225e-01,1.446e+00
8.275e-01,1.367e+00
8.325e-01,1.291e+00
8.375e-01,1.216e+00
8.425e-01,1.144e+00
8.475e-01,1.074e+00
8.525e-01,1.007e+00
8.575e-01,9.430e-01
8.625e-01,8.813e-01
8.675e-01,8.224e-01
8.725e-01,7.662e-01
8.775e-01,7.127e-01
8.825e-01,6.620e-01
8.875e-01,6.139e-01
8.925e-01,5.686e-01
8.975e-01,5.258e-01
9.025e-01,4.855e-01
9.075e-01,4.477e-01
9.125e-01,4.123e-01
9.175e-01,3.791e-01
9.225e-01,3.482e-01
9.275e-01,3.193e-01
9.325e-01,2.925e-01
9.375e-01,2.676e-01
9.425e-01,2.445e-01
9.475e-01,2.231e-01
9.525e-01,2.033e-01
9.575e-01,1.851e-01
9.625e-01,1.683e-01
9.675e-01,1.529e-01
9.725e-01,1.387e-01
9.775e-01,1.256e-01
9.825e-01,1.137e-01
9.875e-01,1.028e-01
9.925e-01,9.287e-02
9.975e-01,8.380e-02
