transmittance,probability_density
2.500e-03,1.714e-34
7.500e-03,1.474e-19
1.250e-02,3.195e-14
1.750e-02,2.896e-11
2.250e-02,2.412e-09
2.750e-02,5.490e-08
3.250e-02,5.636e-07
3.750e-02,3.409e-06
4.250e-02,1.422e-05
4.750e-02,4.521e-05
5.250e-02,1.171e-04
5.750e-02,2.587e-04
6.250e-02,5.042e-04
6.750e-02,8.884e-04
7.250e-02,1.442e-03
7.750e-02,2.188e-03
8.250e-02,3.141e-03
8.750e-02,4.306e-03
9.250e-02,5.681e-03
9.750e-02,7.262e-03
1.025e-01,9.045e-03
1.075e-01,1.103e-02
1.125e-01,1.321e-02
1.175e-01,1.560e-02
1.225e-01,1.821e-02
1.275e-01,2.103e-02
1.325e-01,2.407e-02
1.375e-01,2.733e-02
1.425e-01,3.080e-02
1.475e-01,3.447e-02
1.525e-01,3.831e-02
1.575e-01,4.231e-02
1.625e-01,4.642e-02
1.675e-01,5.063e-02
1.725e-01,5.491e-02
1.775e-01,5.923e-02
1.825e-01,6.359e-02
1.875e-01,6.797e-02
1.925e-01,7.236e-02
1.975e-01,7.677e-02
2.025e-01,8.121e-02
2.075e-01,8.568e-02
2.125e-01,9.019e-02
2.175e-01,9.478e-02
2.225e-01,9.945e-02
2.275e-01,1.042e-01
2.325e-01,1.091e-01
2.375e-01,1.142e-01
2.425e-01,1.194e-01
2.475e-01,1.249e-01
2.525e-01,1.305e-01
2.575e-01,1.364e-01
2.625e-01,1.426e-01
2.675e-01,1.491e-01
2.725e-01,1.559e-01
2.775e-01,1.629e-01
2.825e-01,1.704e-01
2.875e-01,1.782e-01
2.925e-01,1.864e-01
2.975e-01,1.949e-01
3.025e-01,2.039e-01
3.075e-01,2.133e-01
3.125e-01,2.231e-01
3.175e-01,2.333e-01
3.225e-01,2.440e-01
3.275e-01,2.552e-01
3.325e-01,2.669e-01
3.375e-01,2.790e-01
3.425e-01,2.916e-01
3.475e-01,3.047e-01
3.525e-01,3.184e-01
3.575e-01,3.325e-01
3.625e-01,3.471e-01
3.675e-01,3.623e-01
3.725e-01,3.780e-01
3.775e-01,3.941e-01
3.825e-01,4.108e-01
3.875e-01,4.280e-01
3.925e-01,4.457e-01
3.975e-01,4.639e-01
4.025e-01,4.826e-01
4.075e-01,5.019e-01
4.125e-01,5.217e-01
4.175e-01,5.420e-01
4.225e-01,5.629e-01
4.275e-01,5.844e-01
4.325e-01,6.065e-01
4.375e-01,6.293e-01
4.425e-01,6.528e-01
4.475e-01,6.770e-01
4.525e-01,7.020e-01
4.575e-01,7.278e-01
4.625e-01,7.545e-01
4.675e-01,7.820e-01
4.725e-01,8.106e-01
4.775e-01,8.402e-01
4.825e-01,8.708e-01
4.875e-01,9.026e-01
4.925e-01,9.355e-01
4.975e-01,9.696e-01
5.025e-01,1.005e+00
5.075e-01,1.042e+00
5.125e-01,1.080e+00
5.175e-01,1.119e+00
5.225e-01,1.160e+00
5.275e-01,1.202e+00
5.325e-01,1.246e+00
5.375e-01,1.291e+00
5.425e-01,1.338e+00
5.475e-01,1.387e+00
5.525e-01,1.437e+00
5.575e-01,1.489e+00
5.625e-01,1.542e+00
5.675e-01,1.597e+00
5.725e-01,1.654e+00
5.775e-01,1.712e+00
5.825e-01,1.772e+00
5.875e-01,1.834e+00
5.925e-01,1.897e+00
5.975e-01,1.961e+00
6.025e-01,2.027e+00
6.075e-01,2.094e+00
6.125e-01,2.162e+00
6.175e-01,2.231e+00
6.225e-01,2.300e+00
6.275e-01,2.369e+00
6.325e-01,2.439e+00
6.375e-01,2.508e+00
6.425e-01,2.576e+00
6.475e-01,2.643e+00
6.525e-01,2.708e+00
6.575e-01,2.772e+00
6.625e-01,2.833e+00
6.675e-01,2.891e+00
6.725e-01,2.945e+00
6.775e-01,2.995e+00
6.825e-01,3.041e+00
6.875e-01,3.083e+00
6.925e-01,3.118e+00
6.975e-01,3.148e+00
7.025e-01,3.172e+00
7.075e-01,3.190e+00
7.125e-01,3.201e+00
7.175e-01,3.205e+00
7.225e-01,3.201e+00
7.275e-01,3.191e+00
7.325e-01,3.174e+00
7.375e-01,3.149e+00
7.425e-01,3.117e+00
7.475e-01,3.079e+00
7.525e-01,3.033e+00
7.575e-01,2.982e+00
7.625e-01,2.924e+00
7.675e-01,2.860e+00
7.725e-01,2.791e+00
7.775e-01,2.718e+00
7.825e-01,2.640e+00
7.875e-01,2.558e+00
7.925e-01,2.472e+00
7.975e-01,2.384e+00
8.025e-01,2.294e+00
8.075e-01,2.202e+00
8.125e-01,2.109e+00
8.175e-01,2.015e+00
8.225e-01,1.921e+00
8.275e-01,1.827e+00
8.325e-01,1.733e+00
8.375e-01,1.641e+00
8.425e-01,1.550e+00
8.475e-01,1.462e+00
8.525e-01,1.375e+00
8.575e-01,1.290e+00
8.625e-01,1.209e+00
8.675e-01,1.130e+00
8.725e-01,1.054e+00
8.775e-01,9.810e-01
8.825e-01,9.113e-01
8.875e-01,8.449e-01
8.925e-01,7.818e-01
8.975e-01,7.221e-01
9.025e-01,6.656e-01
9.075e-01,6.124e-01
9.125e-01,5.624e-01
9.175e-01,5.155e-01
9.225e-01,4.717e-01
9.275e-01,4.309e-01
9.325e-01,3.929e-01
9.375e-01,3.576e-01
9.425e-01,3.250e-01
9.475e-01,2.948e-01
9.525e-01,2.670e-01
9.575e-01,2.414e-01
9.625e-01,2.180e-01
9.675e-01,1.965e-01
9.725e-01,1.768e-01
9.775e-01,1.589e-01
9.825e-01,1.426e-01
9.875e-01,1.278e-01
9.925e-01,1.143e-01
9.975e-01,1.021e-01
