transmittance,probability_density
2.058e-01,2.312e-24
2.098e-01,1.298e-23
2.138e-01,6.854e-23
2.178e-01,3.411e-22
2.217e-01,1.605e-21
2.257e-01,7.153e-21
2.297e-01,3.028e-20
2.337e-01,1.221e-19
2.377e-01,4.692e-19
2.416e-01,1.724e-18
2.456e-01,6.066e-18
2.496e-01,2.047e-17
2.536e-01,6.638e-17
2.576e-01,2.072e-16
2.615e-01,6.230e-16
2.655e-01,1.808e-15
2.695e-01,5.073e-15
2.735e-01,1.377e-14
2.775e-01,3.622e-14
2.814e-01,9.239e-14
2.854e-01,2.288e-13
2.894e-01,5.510e-13
2.934e-01,1.291e-12
2.974e-01,2.945e-12
3.014e-01,6.549e-12
3.053e-01,1.421e-11
3.093e-01,3.011e-11
3.133e-01,6.234e-11
3.173e-01,1.262e-10
3.213e-01,2.501e-10
3.252e-01,4.854e-10
3.292e-01,9.231e-10
3.332e-01,1.722e-09
3.372e-01,3.150e-09
3.412e-01,5.659e-09
3.451e-01,9.987e-09
3.491e-01,1.732e-08
3.531e-01,2.954e-08
3.571e-01,4.957e-08
3.611e-01,8.188e-08
3.650e-01,1.332e-07
3.690e-01,2.134e-07
3.730e-01,3.370e-07
3.770e-01,5.249e-07
3.810e-01,8.063e-07
3.849e-01,1.222e-06
3.889e-01,1.829e-06
3.929e-01,2.702e-06
3.969e-01,3.944e-06
4.009e-01,5.688e-06
4.049e-01,8.109e-06
4.088e-01,1.143e-05
4.128e-01,1.594e-05
4.168e-01,2.198e-05
4.208e-01,3.001e-05
4.248e-01,4.055e-05
4.287e-01,5.426e-05
4.327e-01,7.189e-05
4.367e-01,9.438e-05
4.407e-01,1.228e-04
4.447e-01,1.583e-04
4.486e-01,2.023e-04
4.526e-01,2.563e-04
4.566e-01,3.221e-04
4.606e-01,4.016e-04
4.646e-01,4.967e-04
4.685e-01,6.097e-04
4.725e-01,7.429e-04
4.765e-01,8.986e-04
4.805e-01,1.079e-03
4.845e-01,1.287e-03
4.885e-01,1.525e-03
4.924e-01,1.795e-03
4.964e-01,2.100e-03
5.004e-01,2.440e-03
5.044e-01,2.820e-03
5.084e-01,3.239e-03
5.123e-01,3.699e-03
5.163e-01,4.201e-03
5.203e-01,4.747e-03
5.243e-01,5.335e-03
5.283e-01,5.966e-03
5.322e-01,6.640e-03
5.362e-01,7.355e-03
5.402e-01,8.111e-03
5.442e-01,8.906e-03
5.482e-01,9.738e-03
5.521e-01,1.061e-02
5.561e-01,1.151e-02
5.601e-01,1.244e-02
5.641e-01,1.340e-02
5.681e-01,1.439e-02
5.721e-01,1.541e-02
5.760e-01,1.645e-02
5.800e-01,1.752e-02
5.840e-01,1.861e-02
5.880e-01,1.972e-02
5.920e-01,2.086e-02
5.959e-01,2.203e-02
5.999e-01,2.322e-02
6.039e-01,2.445e-02
6.079e-01,2.571e-02
6.119e-01,2.701e-02
6.158e-01,2.835e-02
6.198e-01,2.975e-02
6.238e-01,3.121e-02
6.278e-01,3.273e-02
6.318e-01,3.432e-02
6.357e-01,3.600e-02
6.397e-01,3.778e-02
6.437e-01,3.966e-02
6.477e-01,4.166e-02
6.517e-01,4.379e-02
6.557e-01,4.607e-02
6.596e-01,4.852e-02
6.636e-01,5.116e-02
6.676e-01,5.400e-02
6.716e-01,5.706e-02
6.756e-01,6.038e-02
6.795e-01,6.398e-02
6.835e-01,6.789e-02
6.875e-01,7.214e-02
6.915e-01,7.677e-02
6.955e-01,8.183e-02
6.994e-01,8.735e-02
7.034e-01,9.339e-02
7.074e-01,1.000e-01
7.114e-01,1.072e-01
7.154e-01,1.152e-01
7.193e-01,1.239e-01
7.233e-01,1.335e-01
7.273e-01,1.440e-01
7.313e-01,1.556e-01
7.353e-01,1.684e-01
7.393e-01,1.824e-01
7.432e-01,1.978e-01
7.472e-01,2.148e-01
7.512e-01,2.335e-01
7.552e-01,2.540e-01
7.592e-01,2.766e-01
7.631e-01,3.015e-01
7.671e-01,3.289e-01
7.711e-01,3.589e-01
7.751e-01,3.920e-01
7.791e-01,4.282e-01
7.830e-01,4.681e-01
7.870e-01,5.117e-01
7.910e-01,5.597e-01
7.950e-01,6.122e-01
7.990e-01,6.698e-01
8.029e-01,7.331e-01
8.069e-01,8.025e-01
8.109e-01,8.788e-01
8.149e-01,9.627e-01
8.189e-01,1.055e+00
8.228e-01,1.157e+00
8.268e-01,1.270e+00
8.308e-01,1.396e+00
8.348e-01,1.535e+00
8.388e-01,1.691e+00
8.428e-01,1.865e+00
8.467e-01,2.061e+00
8.507e-01,2.282e+00
8.547e-01,2.531e+00
8.587e-01,2.814e+00
8.627e-01,3.134e+00
8.666e-01,3.498e+00
8.706e-01,3.910e+00
8.746e-01,4.378e+00
8.786e-01,4.904e+00
8.826e-01,5.492e+00
8.865e-01,6.142e+00
8.905e-01,6.849e+00
8.945e-01,7.603e+00
8.985e-01,8.384e+00
9.025e-01,9.167e+00
9.064e-01,9.918e+00
9.104e-01,1.060e+01
9.144e-01,1.116e+01
9.184e-01,1.156e+01
9.224e-01,1.177e+01
9.264e-01,1.175e+01
9.303e-01,1.150e+01
9.343e-01,1.103e+01
9.383e-01,1.035e+01
9.423e-01,9.502e+00
9.463e-01,8.537e+00
9.502e-01,7.505e+00
9.542e-01,6.458e+00
9.582e-01,5.442e+00
9.622e-01,4.494e+00
9.662e-01,3.640e+00
9.701e-01,2.894e+00
9.741e-01,2.262e+00
9.781e-01,1.741e+00
9.821e-01,1.321e+00
9.861e-01,9.902e-01
9.900e-01,7.345e-01
9.940e-01,5.403e-01
9.980e-01,3.949e-01
