transmittance,probability_density
5.838e-04,1.796e-01
1.751e-03,9.828e-01
2.919e-03,2.191e+00
4.087e-03,4.152e+00
5.254e-03,6.202e+00
6.422e-03,8.226e+00
7.590e-03,1.034e+01
8.757e-03,1.256e+01
9.925e-03,1.423e+01
1.109e-02,1.587e+01
1.226e-02,1.755e+01
1.343e-02,1.889e+01
1.460e-02,1.946e+01
1.576e-02,2.119e+01
1.693e-02,2.142e+01
1.810e-02,2.193e+01
1.927e-02,2.244e+01
2.043e-02,2.259e+01
2.160e-02,2.292e+01
2.277e-02,2.296e+01
2.394e-02,2.314e+01
2.510e-02,2.220e+01
2.627e-02,2.202e+01
2.744e-02,2.192e+01
2.861e-02,2.177e+01
2.978e-02,2.106e+01
3.094e-02,2.069e+01
3.211e-02,1.999e+01
3.328e-02,1.891e+01
3.445e-02,1.889e+01
3.561e-02,1.799e+01
3.678e-02,1.714e+01
3.795e-02,1.703e+01
3.912e-02,1.602e+01
4.028e-02,1.500e+01
4.145e-02,1.479e+01
4.262e-02,1.429e+01
4.379e-02,1.332e+01
4.495e-02,1.271e+01
4.612e-02,1.240e+01
4.729e-02,1.182e+01
4.846e-02,1.103e+01
4.963e-02,1.077e+01
5.079e-02,1.023e+01
5.196e-02,9.709e+00
5.313e-02,8.963e+00
5.430e-02,8.863e+00
5.546e-02,8.350e+00
5.663e-02,7.598e+00
5.780e-02,7.552e+00
5.897e-02,7.064e+00
6.013e-02,6.471e+00
6.130e-02,6.451e+00
6.247e-02,5.840e+00
6.364e-02,5.714e+00
6.480e-02,4.939e+00
6.597e-02,4.929e+00
6.714e-02,4.716e+00
6.831e-02,4.460e+00
6.948e-02,4.206e+00
7.064e-02,3.928e+00
7.181e-02,3.464e+00
7.298e-02,3.397e+00
7.415e-02,3.182e+00
7.531e-02,3.077e+00
7.648e-02,2.835e+00
7.765e-02,2.617e+00
7.882e-02,2.381e+00
7.998e-02,2.330e+00
8.115e-02,2.263e+00
8.232e-02,2.045e+00
8.349e-02,1.742e+00
8.465e-02,1.711e+00
8.582e-02,1.663e+00
8.699e-02,1.604e+00
8.816e-02,1.537e+00
8.933e-02,1.404e+00
9.049e-02,1.319e+00
9.166e-02,1.206e+00
9.283e-02,1.152e+00
9.400e-02,1.019e+00
9.516e-02,9.006e-01
9.633e-02,9.622e-01
9.750e-02,7.723e-01
9.867e-02,7.133e-01
9.983e-02,7.570e-01
1.010e-01,6.364e-01
1.022e-01,6.415e-01
1.033e-01,5.927e-01
1.045e-01,4.644e-01
1.057e-01,5.183e-01
1.068e-01,4.285e-01
1.080e-01,4.336e-01
1.092e-01,4.259e-01
1.103e-01,4.208e-01
1.115e-01,3.772e-01
1.127e-01,3.515e-01
1.138e-01,2.848e-01
1.150e-01,2.797e-01
1.162e-01,2.797e-01
1.173e-01,2.386e-01
1.185e-01,2.566e-01
1.197e-01,2.155e-01
1.209e-01,1.950e-01
1.220e-01,1.642e-01
1.232e-01,1.283e-01
1.244e-01,1.283e-01
1.255e-01,1.565e-01
1.267e-01,1.565e-01
1.279e-01,1.360e-01
1.290e-01,1.232e-01
1.302e-01,9.494e-02
1.314e-01,4.875e-02
1.325e-01,7.185e-02
1.337e-01,1.052e-01
1.349e-01,5.388e-02
1.360e-01,6.158e-02
1.372e-01,6.928e-02
1.384e-01,4.619e-02
1.395e-01,6.928e-02
1.407e-01,3.592e-02
1.419e-01,4.105e-02
1.430e-01,4.619e-02
1.442e-01,3.592e-02
1.454e-01,3.336e-02
1.465e-01,4.105e-02
1.477e-01,2.309e-02
1.489e-01,2.053e-02
1.500e-01,2.566e-02
1.512e-01,1.540e-02
1.524e-01,1.540e-02
1.535e-01,2.309e-02
1.547e-01,2.309e-02
1.559e-01,1.796e-02
1.570e-01,2.309e-02
1.582e-01,1.283e-02
1.594e-01,1.796e-02
1.606e-01,1.796e-02
1.617e-01,0.000e+00
1.629e-01,7.698e-03
1.641e-01,5.132e-03
1.652e-01,1.026e-02
1.664e-01,2.566e-03
1.676e-01,5.132e-03
1.687e-01,2.566e-03
1.699e-01,2.566e-03
1.711e-01,2.566e-03
1.722e-01,0.000e+00
1.734e-01,2.566e-03
1.746e-01,0.000e+00
1.757e-01,0.000e+00
1.769e-01,2.566e-03
1.781e-01,0.000e+00
1.792e-01,0.000e+00
1.804e-01,2.566e-03
1.816e-01,2.566e-03
1.827e-01,0.000e+00
1.839e-01,0.000e+00
1.851e-01,0.000e+00
1.862e-01,2.566e-03
1.874e-01,0.000e+00
1.886e-01,5.132e-03
1.897e-01,0.000e+00
1.909e-01,2.566e-03
1.921e-01,2.566e-03
1.932e-01,2.566e-03
1.944e-01,2.566e-03
1.956e-01,0.000e+00
1.967e-01,0.000e+00
1.979e-01,0.000e+00
1.991e-01,0.000e+00
2.003e-01,0.000e+00
2.014e-01,0.000e+00
2.026e-01,0.000e+00
2.038e-01,0.000e+00
2.049e-01,0.000e+00
2.061e-01,0.000e+00
2.073e-01,2.566e-03
2.084e-01,0.000e+00
2.096e-01,0.000e+00
2.108e-01,0.000e+00
2.119e-01,2.566e-03
2.131e-01,0.000e+00
2.143e-01,0.000e+00
2.154e-01,0.000e+00
2.166e-01,0.000e+00
2.178e-01,0.000e+00
2.189e-01,0.000e+00
2.201e-01,0.000e+00
2.213e-01,0.000e+00
2.224e-01,0.000e+00
2.236e-01,0.000e+00
2.248e-01,0.000e+00
2.259e-01,0.000e+00
2.271e-01,0.000e+00
2.283e-01,0.000e+00
2.294e-01,0.000e+00
2.306e-01,0.000e+00
2.318e-01,0.000e+00
2.329e-01,0.000e+00
