transmittance,probability_density
8.498e-04,6.875e-02
2.549e-03,4.161e-01
4.249e-03,1.086e+00
5.948e-03,2.020e+00
7.648e-03,3.334e+00
9.347e-03,4.344e+00
1.105e-02,5.777e+00
1.275e-02,6.883e+00
1.445e-02,8.333e+00
1.615e-02,9.254e+00
1.784e-02,1.021e+01
1.954e-02,1.132e+01
2.124e-02,1.237e+01
2.294e-02,1.276e+01
2.464e-02,1.337e+01
2.634e-02,1.381e+01
2.804e-02,1.432e+01
2.974e-02,1.463e+01
3.144e-02,1.463e+01
3.314e-02,1.511e+01
3.484e-02,1.493e+01
3.654e-02,1.503e+01
3.824e-02,1.488e+01
3.994e-02,1.464e+01
4.164e-02,1.444e+01
4.334e-02,1.423e+01
4.504e-02,1.432e+01
4.674e-02,1.414e+01
4.844e-02,1.348e+01
5.014e-02,1.313e+01
5.183e-02,1.287e+01
5.353e-02,1.207e+01
5.523e-02,1.194e+01
5.693e-02,1.144e+01
5.863e-02,1.135e+01
6.033e-02,1.081e+01
6.203e-02,1.005e+01
6.373e-02,9.964e+00
6.543e-02,9.469e+00
6.713e-02,9.074e+00
6.883e-02,8.702e+00
7.053e-02,8.235e+00
7.223e-02,7.947e+00
7.393e-02,7.559e+00
7.563e-02,7.385e+00
7.733e-02,7.046e+00
7.903e-02,6.570e+00
8.073e-02,6.220e+00
8.243e-02,6.137e+00
8.413e-02,5.682e+00
8.582e-02,5.476e+00
8.752e-02,4.936e+00
8.922e-02,5.007e+00
9.092e-02,4.614e+00
9.262e-02,4.257e+00
9.432e-02,4.139e+00
9.602e-02,3.908e+00
9.772e-02,3.619e+00
9.942e-02,3.283e+00
1.011e-01,3.223e+00
1.028e-01,3.235e+00
1.045e-01,2.965e+00
1.062e-01,2.711e+00
1.079e-01,2.570e+00
1.096e-01,2.332e+00
1.113e-01,2.302e+00
1.130e-01,2.200e+00
1.147e-01,1.946e+00
1.164e-01,1.945e+00
1.181e-01,1.677e+00
1.198e-01,1.608e+00
1.215e-01,1.523e+00
1.232e-01,1.470e+00
1.249e-01,1.394e+00
1.266e-01,1.229e+00
1.283e-01,1.179e+00
1.300e-01,1.119e+00
1.317e-01,1.033e+00
1.334e-01,1.028e+00
1.351e-01,8.691e-01
1.368e-01,8.550e-01
1.385e-01,8.268e-01
1.402e-01,7.563e-01
1.419e-01,6.981e-01
1.436e-01,5.923e-01
1.453e-01,6.399e-01
1.470e-01,4.548e-01
1.487e-01,5.447e-01
1.504e-01,5.024e-01
1.521e-01,4.372e-01
1.538e-01,3.508e-01
1.555e-01,4.354e-01
1.572e-01,3.085e-01
1.589e-01,3.332e-01
1.606e-01,2.926e-01
1.623e-01,3.244e-01
1.640e-01,2.979e-01
1.657e-01,2.609e-01
1.674e-01,2.609e-01
1.691e-01,2.239e-01
1.708e-01,2.204e-01
1.725e-01,1.569e-01
1.742e-01,1.569e-01
1.759e-01,1.551e-01
1.776e-01,1.463e-01
1.793e-01,1.481e-01
1.810e-01,1.322e-01
1.827e-01,1.058e-01
1.844e-01,1.023e-01
1.861e-01,1.005e-01
1.878e-01,8.462e-02
1.895e-01,7.581e-02
1.912e-01,6.699e-02
1.929e-01,7.404e-02
1.946e-01,4.407e-02
1.963e-01,4.584e-02
1.980e-01,6.523e-02
1.997e-01,5.818e-02
2.014e-01,3.878e-02
2.031e-01,3.702e-02
2.048e-01,3.526e-02
2.065e-01,3.702e-02
2.082e-01,2.997e-02
2.099e-01,3.173e-02
2.116e-01,2.821e-02
2.133e-01,2.821e-02
2.150e-01,2.116e-02
2.167e-01,2.292e-02
2.184e-01,1.234e-02
2.201e-01,1.587e-02
2.218e-01,1.410e-02
2.235e-01,1.587e-02
2.252e-01,2.292e-02
2.269e-01,1.058e-02
2.286e-01,8.815e-03
2.303e-01,1.763e-02
2.320e-01,8.815e-03
2.337e-01,7.052e-03
2.354e-01,1.058e-02
2.371e-01,1.763e-03
2.388e-01,3.526e-03
2.405e-01,1.763e-03
2.422e-01,5.289e-03
2.439e-01,0.000e+00
2.456e-01,1.763e-03
2.473e-01,5.289e-03
2.490e-01,0.000e+00
2.507e-01,0.000e+00
2.524e-01,1.763e-03
2.541e-01,1.763e-03
2.558e-01,0.000e+00
2.575e-01,1.763e-03
2.592e-01,0.000e+00
2.609e-01,0.000e+00
2.626e-01,1.763e-03
2.643e-01,0.000e+00
2.660e-01,0.000e+00
2.677e-01,1.763e-03
2.694e-01,0.000e+00
2.711e-01,1.763e-03
2.728e-01,0.000e+00
2.745e-01,0.000e+00
2.762e-01,1.763e-03
2.779e-01,1.763e-03
2.796e-01,0.000e+00
2.813e-01,1.763e-03
2.830e-01,1.763e-03
2.847e-01,1.763e-03
2.864e-01,0.000e+00
2.881e-01,0.000e+00
2.898e-01,0.000e+00
2.915e-01,1.763e-03
2.932e-01,0.000e+00
2.949e-01,0.000e+00
2.966e-01,0.000e+00
2.983e-01,0.000e+00
3.000e-01,0.000e+00
3.017e-01,0.000e+00
3.034e-01,0.000e+00
3.051e-01,0.000e+00
3.068e-01,0.000e+00
3.085e-01,1.763e-03
3.102e-01,0.000e+00
3.119e-01,0.000e+00
3.136e-01,0.000e+00
3.153e-01,0.000e+00
3.170e-01,0.000e+00
3.187e-01,0.000e+00
3.204e-01,0.000e+00
3.221e-01,0.000e+00
3.238e-01,0.000e+00
3.255e-01,0.000e+00
3.272e-01,0.000e+00
3.289e-01,0.000e+00
3.306e-01,0.000e+00
3.323e-01,0.000e+00
3.340e-01,0.000e+00
3.357e-01,0.000e+00
3.374e-01,0.000e+00
3.391e-01,0.000e+00
