transmittance,probability_density
1.570e-03,2.863e-03
4.710e-03,3.340e-02
7.850e-03,1.088e-01
1.099e-02,2.500e-01
1.413e-02,4.275e-01
1.727e-02,6.708e-01
2.041e-02,9.962e-01
2.355e-02,1.298e+00
2.669e-02,1.696e+00
2.983e-02,1.969e+00
3.297e-02,2.403e+00
3.611e-02,2.772e+00
3.925e-02,3.170e+00
4.239e-02,3.453e+00
4.553e-02,3.799e+00
4.867e-02,4.322e+00
5.181e-02,4.519e+00
5.495e-02,4.858e+00
5.809e-02,5.125e+00
6.123e-02,5.308e+00
6.437e-02,5.483e+00
6.751e-02,5.676e+00
7.065e-02,5.944e+00
7.379e-02,5.948e+00
7.693e-02,6.291e+00
8.007e-02,6.307e+00
8.321e-02,6.341e+00
8.635e-02,6.426e+00
8.949e-02,6.413e+00
9.263e-02,6.449e+00
9.577e-02,6.600e+00
9.891e-02,6.320e+00
1.020e-01,6.457e+00
1.052e-01,6.334e+00
1.083e-01,6.281e+00
1.115e-01,6.408e+00
1.146e-01,6.242e+00
1.177e-01,6.305e+00
1.209e-01,5.968e+00
1.240e-01,5.923e+00
1.272e-01,5.795e+00
1.303e-01,5.491e+00
1.334e-01,5.551e+00
1.366e-01,5.288e+00
1.397e-01,5.226e+00
1.429e-01,5.341e+00
1.460e-01,4.857e+00
1.491e-01,4.996e+00
1.523e-01,4.591e+00
1.554e-01,4.402e+00
1.586e-01,4.438e+00
1.617e-01,4.202e+00
1.648e-01,4.066e+00
1.680e-01,3.904e+00
1.711e-01,3.736e+00
1.743e-01,3.764e+00
1.774e-01,3.572e+00
1.805e-01,3.447e+00
1.837e-01,3.168e+00
1.868e-01,3.093e+00
1.900e-01,3.197e+00
1.931e-01,2.843e+00
1.962e-01,2.789e+00
1.994e-01,2.640e+00
2.025e-01,2.482e+00
2.057e-01,2.477e+00
2.088e-01,2.347e+00
2.119e-01,2.243e+00
2.151e-01,2.135e+00
2.182e-01,1.936e+00
2.214e-01,1.924e+00
2.245e-01,1.780e+00
2.276e-01,1.817e+00
2.308e-01,1.655e+00
2.339e-01,1.477e+00
2.371e-01,1.489e+00
2.402e-01,1.436e+00
2.433e-01,1.368e+00
2.465e-01,1.207e+00
2.496e-01,1.135e+00
2.528e-01,1.158e+00
2.559e-01,1.009e+00
2.590e-01,1.024e+00
2.622e-01,9.427e-01
2.653e-01,8.788e-01
2.685e-01,8.578e-01
2.716e-01,7.901e-01
2.747e-01,8.216e-01
2.779e-01,6.889e-01
2.810e-01,6.279e-01
2.842e-01,6.508e-01
2.873e-01,5.868e-01
2.904e-01,5.382e-01
2.936e-01,4.981e-01
2.967e-01,4.857e-01
2.999e-01,4.456e-01
3.030e-01,4.208e-01
3.061e-01,4.122e-01
3.093e-01,3.635e-01
3.124e-01,3.502e-01
3.156e-01,3.349e-01
3.187e-01,2.758e-01
3.218e-01,2.796e-01
3.250e-01,2.385e-01
3.281e-01,2.443e-01
3.313e-01,2.567e-01
3.344e-01,2.147e-01
3.375e-01,1.803e-01
3.407e-01,1.689e-01
3.438e-01,1.641e-01
3.470e-01,1.746e-01
3.501e-01,1.603e-01
3.532e-01,1.574e-01
3.564e-01,1.221e-01
3.595e-01,1.155e-01
3.627e-01,1.145e-01
3.658e-01,1.050e-01
3.689e-01,7.729e-02
3.721e-01,8.779e-02
3.752e-01,6.011e-02
3.784e-01,7.920e-02
3.815e-01,6.679e-02
3.846e-01,5.248e-02
3.878e-01,5.343e-02
3.909e-01,6.393e-02
3.941e-01,4.580e-02
3.972e-01,4.008e-02
4.003e-01,3.531e-02
4.035e-01,3.817e-02
4.066e-01,2.576e-02
4.098e-01,3.053e-02
4.129e-01,2.481e-02
4.160e-01,2.385e-02
4.192e-01,2.290e-02
4.223e-01,1.813e-02
4.255e-01,1.813e-02
4.286e-01,1.336e-02
4.317e-01,1.622e-02
4.349e-01,7.634e-03
4.380e-01,1.718e-02
4.412e-01,1.431e-02
4.443e-01,1.240e-02
4.474e-01,1.145e-02
4.506e-01,5.725e-03
4.537e-01,5.725e-03
4.569e-01,6.679e-03
4.600e-01,2.863e-03
4.631e-01,7.634e-03
4.663e-01,1.908e-03
4.694e-01,1.908e-03
4.726e-01,5.725e-03
4.757e-01,3.817e-03
4.788e-01,1.908e-03
4.820e-01,2.863e-03
4.851e-01,1.908e-03
4.883e-01,0.000e+00
4.914e-01,9.542e-04
4.945e-01,9.542e-04
4.977e-01,9.542e-04
5.008e-01,9.542e-04
5.040e-01,0.000e+00
5.071e-01,0.000e+00
5.102e-01,0.000e+00
5.134e-01,1.908e-03
5.165e-01,0.000e+00
5.197e-01,0.000e+00
5.228e-01,0.000e+00
5.259e-01,9.542e-04
5.291e-01,1.908e-03
5.322e-01,0.000e+00
5.354e-01,9.542e-04
5.385e-01,0.000e+00
5.416e-01,9.542e-04
5.448e-01,0.000e+00
5.479e-01,9.542e-04
5.511e-01,0.000e+00
5.542e-01,0.000e+00
5.573e-01,0.000e+00
5.605e-01,0.000e+00
5.636e-01,0.000e+00
5.668e-01,0.000e+00
5.699e-01,9.542e-04
5.730e-01,0.000e+00
5.762e-01,0.000e+00
5.793e-01,0.000e+00
5.825e-01,0.000e+00
5.856e-01,0.000e+00
5.887e-01,0.000e+00
5.919e-01,0.000e+00
5.950e-01,0.000e+00
5.982e-01,0.000e+00
6.013e-01,0.000e+00
6.044e-01,0.000e+00
6.076e-01,0.000e+00
6.107e-01,0.000e+00
6.139e-01,0.000e+00
6.170e-01,0.000e+00
6.201e-01,0.000e+00
6.233e-01,0.000e+00
6.264e-01,0.000e+00
