transmittance,probability_density
1.658e-04,1.473e+00
4.975e-04,6.667e+00
8.291e-04,1.400e+01
1.161e-03,2.416e+01
1.492e-03,3.300e+01
1.824e-03,4.333e+01
2.156e-03,5.219e+01
2.487e-03,5.916e+01
2.819e-03,6.615e+01
3.151e-03,7.319e+01
3.482e-03,7.822e+01
3.814e-03,8.021e+01
4.146e-03,8.463e+01
4.477e-03,8.528e+01
4.809e-03,8.705e+01
5.141e-03,8.800e+01
5.472e-03,8.898e+01
5.804e-03,8.871e+01
6.136e-03,8.738e+01
6.467e-03,8.687e+01
6.799e-03,8.509e+01
7.130e-03,8.275e+01
7.462e-03,7.915e+01
7.794e-03,7.762e+01
8.125e-03,7.580e+01
8.457e-03,7.283e+01
8.789e-03,7.024e+01
9.120e-03,6.674e+01
9.452e-03,6.427e+01
9.784e-03,6.167e+01
1.012e-02,5.957e+01
1.045e-02,5.599e+01
1.078e-02,5.273e+01
1.111e-02,4.996e+01
1.144e-02,4.847e+01
1.177e-02,4.666e+01
1.211e-02,4.460e+01
1.244e-02,4.079e+01
1.277e-02,3.911e+01
1.310e-02,3.584e+01
1.343e-02,3.568e+01
1.376e-02,3.421e+01
1.410e-02,3.202e+01
1.443e-02,2.988e+01
1.476e-02,2.803e+01
1.509e-02,2.668e+01
1.542e-02,2.474e+01
1.575e-02,2.369e+01
1.609e-02,2.277e+01
1.642e-02,2.108e+01
1.675e-02,1.962e+01
1.708e-02,1.799e+01
1.741e-02,1.693e+01
1.774e-02,1.626e+01
1.807e-02,1.569e+01
1.841e-02,1.383e+01
1.874e-02,1.334e+01
1.907e-02,1.230e+01
1.940e-02,1.151e+01
1.973e-02,1.052e+01
2.006e-02,1.084e+01
2.040e-02,9.413e+00
2.073e-02,8.953e+00
2.106e-02,8.573e+00
2.139e-02,7.390e+00
2.172e-02,6.631e+00
2.205e-02,6.947e+00
2.239e-02,6.459e+00
2.272e-02,5.818e+00
2.305e-02,5.637e+00
2.338e-02,5.664e+00
2.371e-02,4.662e+00
2.404e-02,4.905e+00
2.438e-02,4.119e+00
2.471e-02,3.885e+00
2.504e-02,3.568e+00
2.537e-02,3.541e+00
2.570e-02,2.900e+00
2.603e-02,2.791e+00
2.637e-02,2.936e+00
2.670e-02,2.286e+00
2.703e-02,2.295e+00
2.736e-02,2.249e+00
2.769e-02,2.087e+00
2.802e-02,1.626e+00
2.836e-02,1.644e+00
2.869e-02,1.337e+00
2.902e-02,1.409e+00
2.935e-02,1.373e+00
2.968e-02,1.400e+00
3.001e-02,1.373e+00
3.035e-02,1.075e+00
3.068e-02,1.138e+00
3.101e-02,1.165e+00
3.134e-02,8.221e-01
3.167e-02,7.769e-01
3.200e-02,7.860e-01
3.234e-02,7.498e-01
3.267e-02,6.414e-01
3.300e-02,6.595e-01
3.333e-02,7.046e-01
3.366e-02,4.698e-01
3.399e-02,5.059e-01
3.433e-02,4.698e-01
3.466e-02,3.614e-01
3.499e-02,4.156e-01
3.532e-02,4.336e-01
3.565e-02,2.891e-01
3.598e-02,2.891e-01
3.632e-02,3.343e-01
3.665e-02,2.530e-01
3.698e-02,2.710e-01
3.731e-02,1.626e-01
3.764e-02,2.078e-01
3.797e-02,1.355e-01
3.831e-02,1.445e-01
3.864e-02,1.084e-01
3.897e-02,1.897e-01
3.930e-02,1.626e-01
3.963e-02,1.445e-01
3.996e-02,6.324e-02
4.030e-02,1.355e-01
4.063e-02,6.324e-02
4.096e-02,7.227e-02
4.129e-02,1.084e-01
4.162e-02,8.131e-02
4.195e-02,9.034e-02
4.229e-02,8.131e-02
4.262e-02,4.517e-02
4.295e-02,9.034e-02
4.328e-02,6.324e-02
4.361e-02,3.614e-02
4.394e-02,5.420e-02
4.428e-02,4.517e-02
4.461e-02,2.710e-02
4.494e-02,2.710e-02
4.527e-02,1.807e-02
4.560e-02,9.034e-03
4.593e-02,2.710e-02
4.627e-02,1.807e-02
4.660e-02,1.807e-02
4.693e-02,9.034e-03
4.726e-02,2.710e-02
4.759e-02,9.034e-03
4.792e-02,0.000e+00
4.826e-02,9.034e-03
4.859e-02,9.034e-03
4.892e-02,9.034e-03
4.925e-02,0.000e+00
4.958e-02,1.807e-02
4.991e-02,9.034e-03
5.024e-02,0.000e+00
5.058e-02,0.000e+00
5.091e-02,0.000e+00
5.124e-02,0.000e+00
5.157e-02,0.000e+00
5.190e-02,9.034e-03
5.223e-02,0.000e+00
5.257e-02,0.000e+00
5.290e-02,9.034e-03
5.323e-02,0.000e+00
5.356e-02,0.000e+00
5.389e-02,3.614e-02
5.422e-02,0.000e+00
5.456e-02,0.000e+00
5.489e-02,9.034e-03
5.522e-02,0.000e+00
5.555e-02,0.000e+00
5.588e-02,0.000e+00
5.621e-02,0.000e+00
5.655e-02,0.000e+00
5.688e-02,0.000e+00
5.721e-02,0.000e+00
5.754e-02,0.000e+00
5.787e-02,0.000e+00
5.820e-02,0.000e+00
5.854e-02,0.000e+00
5.887e-02,0.000e+00
5.920e-02,0.000e+00
5.953e-02,0.000e+00
5.986e-02,9.034e-03
6.019e-02,9.034e-03
6.053e-02,0.000e+00
6.086e-02,0.000e+00
6.119e-02,0.000e+00
6.152e-02,0.000e+00
6.185e-02,0.000e+00
6.218e-02,0.000e+00
6.252e-02,0.000e+00
6.285e-02,0.000e+00
6.318e-02,0.000e+00
6.351e-02,0.000e+00
6.384e-02,0.000e+00
6.417e-02,0.000e+00
6.451e-02,0.000e+00
6.484e-02,0.000e+00
6.517e-02,0.000e+00
6.550e-02,0.000e+00
6.583e-02,0.000e+00
6.616e-02,0.000e+00
