transmittance,probability_density
1.968e-03,0.000e+00
5.904e-03,1.522e-03
9.840e-03,5.329e-03
1.378e-02,2.284e-02
1.771e-02,4.111e-02
2.165e-02,8.526e-02
2.558e-02,1.165e-01
2.952e-02,1.637e-01
3.345e-02,2.512e-01
3.739e-02,3.205e-01
4.133e-02,4.263e-01
4.526e-02,5.397e-01
4.920e-02,6.280e-01
5.313e-02,7.856e-01
5.707e-02,8.914e-01
6.100e-02,1.050e+00
6.494e-02,1.139e+00
6.888e-02,1.375e+00
7.281e-02,1.446e+00
7.675e-02,1.601e+00
8.068e-02,1.814e+00
8.462e-02,1.947e+00
8.856e-02,2.026e+00
9.249e-02,2.230e+00
9.643e-02,2.383e+00
1.004e-01,2.525e+00
1.043e-01,2.671e+00
1.082e-01,2.836e+00
1.122e-01,2.994e+00
1.161e-01,2.978e+00
1.200e-01,3.222e+00
1.240e-01,3.172e+00
1.279e-01,3.319e+00
1.318e-01,3.385e+00
1.358e-01,3.505e+00
1.397e-01,3.563e+00
1.437e-01,3.702e+00
1.476e-01,3.768e+00
1.515e-01,3.772e+00
1.555e-01,3.874e+00
1.594e-01,3.886e+00
1.633e-01,3.933e+00
1.673e-01,3.880e+00
1.712e-01,3.946e+00
1.751e-01,4.004e+00
1.791e-01,3.989e+00
1.830e-01,4.011e+00
1.870e-01,4.021e+00
1.909e-01,3.888e+00
1.948e-01,3.922e+00
1.988e-01,4.118e+00
2.027e-01,3.906e+00
2.066e-01,4.000e+00
2.106e-01,3.923e+00
2.145e-01,3.903e+00
2.184e-01,3.920e+00
2.224e-01,3.722e+00
2.263e-01,3.594e+00
2.302e-01,3.731e+00
2.342e-01,3.555e+00
2.381e-01,3.547e+00
2.421e-01,3.636e+00
2.460e-01,3.409e+00
2.499e-01,3.308e+00
2.539e-01,3.322e+00
2.578e-01,3.270e+00
2.617e-01,3.125e+00
2.657e-01,3.170e+00
2.696e-01,2.921e+00
2.735e-01,3.046e+00
2.775e-01,2.907e+00
2.814e-01,2.784e+00
2.853e-01,2.715e+00
2.893e-01,2.511e+00
2.932e-01,2.504e+00
2.972e-01,2.567e+00
3.011e-01,2.453e+00
3.050e-01,2.389e+00
3.090e-01,2.380e+00
3.129e-01,2.233e+00
3.168e-01,2.102e+00
3.208e-01,2.082e+00
3.247e-01,2.036e+00
3.286e-01,1.955e+00
3.326e-01,1.894e+00
3.365e-01,1.825e+00
3.404e-01,1.798e+00
3.444e-01,1.688e+00
3.483e-01,1.575e+00
3.523e-01,1.532e+00
3.562e-01,1.512e+00
3.601e-01,1.433e+00
3.641e-01,1.383e+00
3.680e-01,1.342e+00
3.719e-01,1.338e+00
3.759e-01,1.222e+00
3.798e-01,1.163e+00
3.837e-01,1.060e+00
3.877e-01,9.675e-01
3.916e-01,9.965e-01
3.955e-01,1.010e+00
3.995e-01,9.257e-01
4.034e-01,8.290e-01
4.074e-01,8.389e-01
4.113e-01,8.161e-01
4.152e-01,7.673e-01
4.192e-01,6.364e-01
4.231e-01,6.638e-01
4.270e-01,6.767e-01
4.310e-01,5.648e-01
4.349e-01,5.778e-01
4.388e-01,5.694e-01
4.428e-01,5.405e-01
4.467e-01,5.070e-01
4.506e-01,4.453e-01
4.546e-01,4.172e-01
4.585e-01,4.293e-01
4.625e-01,3.890e-01
4.664e-01,3.433e-01
4.703e-01,3.487e-01
4.743e-01,3.212e-01
4.782e-01,3.243e-01
4.821e-01,2.695e-01
4.861e-01,2.383e-01
4.900e-01,2.603e-01
4.939e-01,2.139e-01
4.979e-01,1.987e-01
5.018e-01,2.086e-01
5.058e-01,1.934e-01
5.097e-01,1.507e-01
5.136e-01,1.682e-01
5.176e-01,1.614e-01
5.215e-01,1.363e-01
5.254e-01,1.119e-01
5.294e-01,1.172e-01
5.333e-01,1.104e-01
5.372e-01,1.012e-01
5.412e-01,8.450e-02
5.451e-01,8.907e-02
5.490e-01,8.678e-02
5.530e-01,7.308e-02
5.569e-01,6.927e-02
5.609e-01,5.024e-02
5.648e-01,4.111e-02
5.687e-01,4.111e-02
5.727e-01,4.644e-02
5.766e-01,4.339e-02
5.805e-01,4.339e-02
5.845e-01,3.426e-02
5.884e-01,3.426e-02
5.923e-01,3.349e-02
5.963e-01,2.284e-02
6.002e-01,2.436e-02
6.041e-01,1.675e-02
6.081e-01,1.751e-02
6.120e-01,1.827e-02
6.160e-01,1.218e-02
6.199e-01,8.374e-03
6.238e-01,9.896e-03
6.278e-01,6.090e-03
6.317e-01,7.612e-03
6.356e-01,6.851e-03
6.396e-01,8.374e-03
6.435e-01,6.090e-03
6.474e-01,5.329e-03
6.514e-01,4.567e-03
6.553e-01,3.045e-03
6.592e-01,1.522e-03
6.632e-01,3.045e-03
6.671e-01,3.806e-03
6.711e-01,3.045e-03
6.750e-01,0.000e+00
6.789e-01,7.612e-04
6.829e-01,2.284e-03
6.868e-01,7.612e-04
6.907e-01,2.284e-03
6.947e-01,0.000e+00
6.986e-01,7.612e-04
7.025e-01,0.000e+00
7.065e-01,1.522e-03
7.104e-01,7.612e-04
7.143e-01,7.612e-04
7.183e-01,0.000e+00
7.222e-01,0.000e+00
7.262e-01,0.000e+00
7.301e-01,0.000e+00
7.340e-01,0.000e+00
7.380e-01,0.000e+00
7.419e-01,0.000e+00
7.458e-01,0.000e+00
7.498e-01,0.000e+00
7.537e-01,0.000e+00
7.576e-01,0.000e+00
7.616e-01,0.000e+00
7.655e-01,0.000e+00
7.694e-01,0.000e+00
7.734e-01,0.000e+00
7.773e-01,0.000e+00
7.813e-01,0.000e+00
7.852e-01,0.000e+00
