transmittance,probability_density
3.495e-05,2.382e+02
1.049e-04,3.819e+02
1.748e-04,4.467e+02
2.447e-04,4.793e+02
3.146e-04,4.942e+02
3.845e-04,4.984e+02
4.544e-04,4.957e+02
5.243e-04,4.882e+02
5.942e-04,4.776e+02
6.641e-04,4.648e+02
7.340e-04,4.506e+02
8.039e-04,4.354e+02
8.738e-04,4.197e+02
9.437e-04,4.038e+02
1.014e-03,3.878e+02
1.084e-03,3.719e+02
1.153e-03,3.562e+02
1.223e-03,3.408e+02
1.293e-03,3.259e+02
1.363e-03,3.113e+02
1.433e-03,2.972e+02
1.503e-03,2.836e+02
1.573e-03,2.704e+02
1.643e-03,2.578e+02
1.713e-03,2.456e+02
1.783e-03,2.339e+02
1.852e-03,2.228e+02
1.922e-03,2.121e+02
1.992e-03,2.018e+02
2.062e-03,1.920e+02
2.132e-03,1.827e+02
2.202e-03,1.737e+02
2.272e-03,1.652e+02
2.342e-03,1.571e+02
2.412e-03,1.493e+02
2.482e-03,1.419e+02
2.552e-03,1.349e+02
2.621e-03,1.282e+02
2.691e-03,1.218e+02
2.761e-03,1.157e+02
2.831e-03,1.099e+02
2.901e-03,1.044e+02
2.971e-03,9.920e+01
3.041e-03,9.422e+01
3.111e-03,8.948e+01
3.181e-03,8.498e+01
3.251e-03,8.070e+01
3.320e-03,7.664e+01
3.390e-03,7.277e+01
3.460e-03,6.910e+01
3.530e-03,6.561e+01
3.600e-03,6.229e+01
3.670e-03,5.914e+01
3.740e-03,5.615e+01
3.810e-03,5.330e+01
3.880e-03,5.060e+01
3.950e-03,4.804e+01
4.020e-03,4.560e+01
4.089e-03,4.329e+01
4.159e-03,4.109e+01
4.229e-03,3.900e+01
4.299e-03,3.702e+01
4.369e-03,3.514e+01
4.439e-03,3.336e+01
4.509e-03,3.166e+01
4.579e-03,3.005e+01
4.649e-03,2.852e+01
4.719e-03,2.707e+01
4.788e-03,2.569e+01
4.858e-03,2.438e+01
4.928e-03,2.314e+01
4.998e-03,2.196e+01
5.068e-03,2.085e+01
5.138e-03,1.978e+01
5.208e-03,1.878e+01
5.278e-03,1.782e+01
5.348e-03,1.691e+01
5.418e-03,1.605e+01
5.488e-03,1.523e+01
5.557e-03,1.446e+01
5.627e-03,1.372e+01
5.697e-03,1.302e+01
5.767e-03,1.236e+01
5.837e-03,1.173e+01
5.907e-03,1.113e+01
5.977e-03,1.056e+01
6.047e-03,1.002e+01
6.117e-03,9.511e+00
6.187e-03,9.026e+00
6.256e-03,8.566e+00
6.326e-03,8.129e+00
6.396e-03,7.715e+00
6.466e-03,7.321e+00
6.536e-03,6.948e+00
6.606e-03,6.593e+00
6.676e-03,6.257e+00
6.746e-03,5.938e+00
6.816e-03,5.635e+00
6.886e-03,5.348e+00
6.956e-03,5.075e+00
7.025e-03,4.816e+00
7.095e-03,4.570e+00
7.165e-03,4.337e+00
7.235e-03,4.116e+00
7.305e-03,3.906e+00
7.375e-03,3.707e+00
7.445e-03,3.517e+00
7.515e-03,3.338e+00
7.585e-03,3.168e+00
7.655e-03,3.006e+00
7.725e-03,2.853e+00
7.794e-03,2.707e+00
7.864e-03,2.569e+00
7.934e-03,2.438e+00
8.004e-03,2.314e+00
8.074e-03,2.196e+00
8.144e-03,2.084e+00
8.214e-03,1.977e+00
8.284e-03,1.877e+00
8.354e-03,1.781e+00
8.424e-03,1.690e+00
8.493e-03,1.604e+00
8.563e-03,1.522e+00
8.633e-03,1.444e+00
8.703e-03,1.371e+00
8.773e-03,1.301e+00
8.843e-03,1.234e+00
8.913e-03,1.171e+00
8.983e-03,1.112e+00
9.053e-03,1.055e+00
9.123e-03,1.001e+00
9.193e-03,9.501e-01
9.262e-03,9.016e-01
9.332e-03,8.556e-01
9.402e-03,8.120e-01
9.472e-03,7.706e-01
9.542e-03,7.313e-01
9.612e-03,6.940e-01
9.682e-03,6.586e-01
9.752e-03,6.250e-01
9.822e-03,5.931e-01
9.892e-03,5.629e-01
9.961e-03,5.342e-01
1.003e-02,5.069e-01
1.010e-02,4.811e-01
1.017e-02,4.566e-01
1.024e-02,4.333e-01
1.031e-02,4.112e-01
1.038e-02,3.902e-01
1.045e-02,3.703e-01
1.052e-02,3.514e-01
1.059e-02,3.335e-01
1.066e-02,3.165e-01
1.073e-02,3.004e-01
1.080e-02,2.850e-01
1.087e-02,2.705e-01
1.094e-02,2.567e-01
1.101e-02,2.436e-01
1.108e-02,2.312e-01
1.115e-02,2.194e-01
1.122e-02,2.082e-01
1.129e-02,1.976e-01
1.136e-02,1.875e-01
1.143e-02,1.780e-01
1.150e-02,1.689e-01
1.157e-02,1.603e-01
1.164e-02,1.521e-01
1.171e-02,1.444e-01
1.178e-02,1.370e-01
1.185e-02,1.300e-01
1.192e-02,1.234e-01
1.199e-02,1.171e-01
1.206e-02,1.111e-01
1.213e-02,1.055e-01
1.220e-02,1.001e-01
1.227e-02,9.497e-02
1.234e-02,9.013e-02
1.241e-02,8.553e-02
1.248e-02,8.117e-02
1.255e-02,7.703e-02
1.262e-02,7.311e-02
1.269e-02,6.938e-02
1.276e-02,6.584e-02
1.283e-02,6.248e-02
1.290e-02,5.930e-02
1.297e-02,5.627e-02
1.304e-02,5.340e-02
1.311e-02,5.068e-02
1.318e-02,4.810e-02
1.325e-02,4.564e-02
1.332e-02,4.332e-02
1.339e-02,4.111e-02
1.346e-02,3.901e-02
1.353e-02,3.702e-02
1.360e-02,3.514e-02
1.367e-02,3.334e-02
1.374e-02,3.164e-02
1.381e-02,3.003e-02
1.388e-02,2.850e-02
1.395e-02,2.705e-02
