transmittance,probability_density
4.581e-04,1.139e+01
1.374e-03,2.090e+01
2.291e-03,2.602e+01
3.207e-03,2.910e+01
4.123e-03,3.097e+01
5.040e-03,3.205e+01
5.956e-03,3.257e+01
6.872e-03,3.270e+01
7.789e-03,3.254e+01
8.705e-03,3.216e+01
9.621e-03,3.162e+01
1.054e-02,3.096e+01
1.145e-02,3.022e+01
1.237e-02,2.941e+01
1.329e-02,2.856e+01
1.420e-02,2.768e+01
1.512e-02,2.678e+01
1.604e-02,2.588e+01
1.695e-02,2.497e+01
1.787e-02,2.407e+01
1.878e-02,2.318e+01
1.970e-02,2.231e+01
2.062e-02,2.145e+01
2.153e-02,2.061e+01
2.245e-02,1.979e+01
2.337e-02,1.899e+01
2.428e-02,1.822e+01
2.520e-02,1.747e+01
2.611e-02,1.674e+01
2.703e-02,1.604e+01
2.795e-02,1.536e+01
2.886e-02,1.471e+01
2.978e-02,1.407e+01
3.070e-02,1.347e+01
3.161e-02,1.288e+01
3.253e-02,1.232e+01
3.344e-02,1.178e+01
3.436e-02,1.126e+01
3.528e-02,1.076e+01
3.619e-02,1.028e+01
3.711e-02,9.824e+00
3.803e-02,9.383e+00
3.894e-02,8.962e+00
3.986e-02,8.557e+00
4.078e-02,8.170e+00
4.169e-02,7.799e+00
4.261e-02,7.444e+00
4.352e-02,7.104e+00
4.444e-02,6.779e+00
4.536e-02,6.468e+00
4.627e-02,6.170e+00
4.719e-02,5.886e+00
4.811e-02,5.614e+00
4.902e-02,5.354e+00
4.994e-02,5.105e+00
5.085e-02,4.868e+00
5.177e-02,4.641e+00
5.269e-02,4.425e+00
5.360e-02,4.218e+00
5.452e-02,4.020e+00
5.544e-02,3.831e+00
5.635e-02,3.651e+00
5.727e-02,3.479e+00
5.819e-02,3.315e+00
5.910e-02,3.159e+00
6.002e-02,3.009e+00
6.093e-02,2.867e+00
6.185e-02,2.731e+00
6.277e-02,2.601e+00
6.368e-02,2.477e+00
6.460e-02,2.359e+00
6.552e-02,2.247e+00
6.643e-02,2.139e+00
6.735e-02,2.037e+00
6.826e-02,1.939e+00
6.918e-02,1.846e+00
7.010e-02,1.758e+00
7.101e-02,1.673e+00
7.193e-02,1.592e+00
7.285e-02,1.516e+00
7.376e-02,1.443e+00
7.468e-02,1.373e+00
7.559e-02,1.306e+00
7.651e-02,1.243e+00
7.743e-02,1.183e+00
7.834e-02,1.125e+00
7.926e-02,1.071e+00
8.018e-02,1.019e+00
8.109e-02,9.689e-01
8.201e-02,9.217e-01
8.293e-02,8.767e-01
8.384e-02,8.338e-01
8.476e-02,7.930e-01
8.567e-02,7.542e-01
8.659e-02,7.172e-01
8.751e-02,6.820e-01
8.842e-02,6.484e-01
8.934e-02,6.165e-01
9.026e-02,5.862e-01
9.117e-02,5.573e-01
9.209e-02,5.297e-01
9.300e-02,5.036e-01
9.392e-02,4.787e-01
9.484e-02,4.550e-01
9.575e-02,4.324e-01
9.667e-02,4.109e-01
9.759e-02,3.905e-01
9.850e-02,3.711e-01
9.942e-02,3.526e-01
1.003e-01,3.351e-01
1.013e-01,3.184e-01
1.022e-01,3.025e-01
1.031e-01,2.873e-01
1.040e-01,2.730e-01
1.049e-01,2.593e-01
1.058e-01,2.463e-01
1.067e-01,2.339e-01
1.077e-01,2.222e-01
1.086e-01,2.110e-01
1.095e-01,2.004e-01
1.104e-01,1.903e-01
1.113e-01,1.807e-01
1.122e-01,1.716e-01
1.132e-01,1.629e-01
1.141e-01,1.547e-01
1.150e-01,1.468e-01
1.159e-01,1.394e-01
1.168e-01,1.323e-01
1.177e-01,1.256e-01
1.187e-01,1.192e-01
1.196e-01,1.131e-01
1.205e-01,1.074e-01
1.214e-01,1.019e-01
1.223e-01,9.670e-02
1.232e-01,9.176e-02
1.242e-01,8.706e-02
1.251e-01,8.260e-02
1.260e-01,7.837e-02
1.269e-01,7.435e-02
1.278e-01,7.053e-02
1.287e-01,6.691e-02
1.297e-01,6.346e-02
1.306e-01,6.019e-02
1.315e-01,5.709e-02
1.324e-01,5.414e-02
1.333e-01,5.135e-02
1.342e-01,4.869e-02
1.352e-01,4.617e-02
1.361e-01,4.378e-02
1.370e-01,4.151e-02
1.379e-01,3.935e-02
1.388e-01,3.731e-02
1.397e-01,3.536e-02
1.407e-01,3.352e-02
1.416e-01,3.178e-02
1.425e-01,3.012e-02
1.434e-01,2.854e-02
1.443e-01,2.705e-02
1.452e-01,2.563e-02
1.461e-01,2.429e-02
1.471e-01,2.302e-02
1.480e-01,2.181e-02
1.489e-01,2.066e-02
1.498e-01,1.958e-02
1.507e-01,1.854e-02
1.516e-01,1.757e-02
1.526e-01,1.664e-02
1.535e-01,1.576e-02
1.544e-01,1.493e-02
1.553e-01,1.414e-02
1.562e-01,1.339e-02
1.571e-01,1.268e-02
1.581e-01,1.201e-02
1.590e-01,1.137e-02
1.599e-01,1.076e-02
1.608e-01,1.019e-02
1.617e-01,9.646e-03
1.626e-01,9.131e-03
1.636e-01,8.643e-03
1.645e-01,8.181e-03
1.654e-01,7.743e-03
1.663e-01,7.328e-03
1.672e-01,6.935e-03
1.681e-01,6.563e-03
1.691e-01,6.210e-03
1.700e-01,5.876e-03
1.709e-01,5.559e-03
1.718e-01,5.260e-03
1.727e-01,4.976e-03
1.736e-01,4.707e-03
1.746e-01,4.452e-03
1.755e-01,4.211e-03
1.764e-01,3.983e-03
1.773e-01,3.767e-03
1.782e-01,3.562e-03
1.791e-01,3.369e-03
1.801e-01,3.185e-03
1.810e-01,3.012e-03
1.819e-01,2.847e-03
1.828e-01,2.692e-03
