transmittance,probability_density
1.495e-03,6.300e-01
4.486e-03,1.820e+00
7.477e-03,2.791e+00
1.047e-02,3.583e+00
1.346e-02,4.232e+00
1.645e-02,4.764e+00
1.944e-02,5.198e+00
2.243e-02,5.550e+00
2.542e-02,5.833e+00
2.841e-02,6.057e+00
3.140e-02,6.230e+00
3.440e-02,6.361e+00
3.739e-02,6.455e+00
4.038e-02,6.518e+00
4.337e-02,6.553e+00
4.636e-02,6.564e+00
4.935e-02,6.555e+00
5.234e-02,6.528e+00
5.533e-02,6.485e+00
5.832e-02,6.430e+00
6.131e-02,6.362e+00
6.430e-02,6.285e+00
6.730e-02,6.200e+00
7.029e-02,6.107e+00
7.328e-02,6.008e+00
7.627e-02,5.904e+00
7.926e-02,5.796e+00
8.225e-02,5.684e+00
8.524e-02,5.569e+00
8.823e-02,5.453e+00
9.122e-02,5.334e+00
9.421e-02,5.215e+00
9.720e-02,5.094e+00
1.002e-01,4.974e+00
1.032e-01,4.853e+00
1.062e-01,4.733e+00
1.092e-01,4.613e+00
1.122e-01,4.494e+00
1.151e-01,4.376e+00
1.181e-01,4.259e+00
1.211e-01,4.143e+00
1.241e-01,4.029e+00
1.271e-01,3.917e+00
1.301e-01,3.806e+00
1.331e-01,3.697e+00
1.361e-01,3.590e+00
1.391e-01,3.485e+00
1.421e-01,3.381e+00
1.451e-01,3.280e+00
1.480e-01,3.181e+00
1.510e-01,3.084e+00
1.540e-01,2.989e+00
1.570e-01,2.896e+00
1.600e-01,2.805e+00
1.630e-01,2.716e+00
1.660e-01,2.630e+00
1.690e-01,2.545e+00
1.720e-01,2.463e+00
1.750e-01,2.383e+00
1.780e-01,2.304e+00
1.809e-01,2.228e+00
1.839e-01,2.154e+00
1.869e-01,2.082e+00
1.899e-01,2.011e+00
1.929e-01,1.943e+00
1.959e-01,1.877e+00
1.989e-01,1.812e+00
2.019e-01,1.749e+00
2.049e-01,1.689e+00
2.079e-01,1.629e+00
2.109e-01,1.572e+00
2.138e-01,1.516e+00
2.168e-01,1.462e+00
2.198e-01,1.410e+00
2.228e-01,1.359e+00
2.258e-01,1.310e+00
2.288e-01,1.262e+00
2.318e-01,1.216e+00
2.348e-01,1.171e+00
2.378e-01,1.128e+00
2.408e-01,1.086e+00
2.438e-01,1.045e+00
2.467e-01,1.006e+00
2.497e-01,9.679e-01
2.527e-01,9.312e-01
2.557e-01,8.956e-01
2.587e-01,8.613e-01
2.617e-01,8.281e-01
2.647e-01,7.960e-01
2.677e-01,7.650e-01
2.707e-01,7.350e-01
2.737e-01,7.061e-01
2.767e-01,6.782e-01
2.796e-01,6.513e-01
2.826e-01,6.253e-01
2.856e-01,6.002e-01
2.886e-01,5.761e-01
2.916e-01,5.527e-01
2.946e-01,5.303e-01
2.976e-01,5.086e-01
3.006e-01,4.877e-01
3.036e-01,4.676e-01
3.066e-01,4.482e-01
3.096e-01,4.295e-01
3.125e-01,4.115e-01
3.155e-01,3.942e-01
3.185e-01,3.775e-01
3.215e-01,3.615e-01
3.245e-01,3.461e-01
3.275e-01,3.312e-01
3.305e-01,3.170e-01
3.335e-01,3.032e-01
3.365e-01,2.900e-01
3.395e-01,2.774e-01
3.425e-01,2.652e-01
3.454e-01,2.535e-01
3.484e-01,2.422e-01
3.514e-01,2.314e-01
3.544e-01,2.211e-01
3.574e-01,2.111e-01
3.604e-01,2.016e-01
3.634e-01,1.924e-01
3.664e-01,1.836e-01
3.694e-01,1.752e-01
3.724e-01,1.671e-01
3.754e-01,1.594e-01
3.783e-01,1.519e-01
3.813e-01,1.448e-01
3.843e-01,1.380e-01
3.873e-01,1.315e-01
3.903e-01,1.253e-01
3.933e-01,1.193e-01
3.963e-01,1.135e-01
3.993e-01,1.081e-01
4.023e-01,1.028e-01
4.053e-01,9.782e-02
4.083e-01,9.303e-02
4.112e-01,8.845e-02
4.142e-01,8.408e-02
4.172e-01,7.990e-02
4.202e-01,7.590e-02
4.232e-01,7.209e-02
4.262e-01,6.845e-02
4.292e-01,6.497e-02
4.322e-01,6.166e-02
4.352e-01,5.849e-02
4.382e-01,5.548e-02
4.412e-01,5.260e-02
4.441e-01,4.986e-02
4.471e-01,4.725e-02
4.501e-01,4.476e-02
4.531e-01,4.239e-02
4.561e-01,4.013e-02
4.591e-01,3.798e-02
4.621e-01,3.593e-02
4.651e-01,3.399e-02
4.681e-01,3.214e-02
4.711e-01,3.038e-02
4.741e-01,2.871e-02
4.770e-01,2.712e-02
4.800e-01,2.561e-02
4.830e-01,2.417e-02
4.860e-01,2.281e-02
4.890e-01,2.152e-02
4.920e-01,2.029e-02
4.950e-01,1.913e-02
4.980e-01,1.803e-02
5.010e-01,1.698e-02
5.040e-01,1.599e-02
5.070e-01,1.506e-02
5.099e-01,1.417e-02
5.129e-01,1.333e-02
5.159e-01,1.253e-02
5.189e-01,1.178e-02
5.219e-01,1.107e-02
5.249e-01,1.039e-02
5.279e-01,9.759e-03
5.309e-01,9.158e-03
5.339e-01,8.591e-03
5.369e-01,8.056e-03
5.399e-01,7.550e-03
5.428e-01,7.074e-03
5.458e-01,6.625e-03
5.488e-01,6.201e-03
5.518e-01,5.802e-03
5.548e-01,5.427e-03
5.578e-01,5.073e-03
5.608e-01,4.740e-03
5.638e-01,4.427e-03
5.668e-01,4.133e-03
5.698e-01,3.856e-03
5.728e-01,3.597e-03
5.757e-01,3.353e-03
5.787e-01,3.124e-03
5.817e-01,2.909e-03
5.847e-01,2.708e-03
5.877e-01,2.519e-03
5.907e-01,2.342e-03
5.937e-01,2.177e-03
5.967e-01,2.022e-03
