transmittance,probability_density
1.848e-03,2.089e-01
5.543e-03,7.387e-01
9.239e-03,1.255e+00
1.293e-02,1.726e+00
1.663e-02,2.146e+00
2.032e-02,2.517e+00
2.402e-02,2.844e+00
2.772e-02,3.131e+00
3.141e-02,3.380e+00
3.511e-02,3.596e+00
3.880e-02,3.783e+00
4.250e-02,3.942e+00
4.619e-02,4.077e+00
4.989e-02,4.190e+00
5.358e-02,4.282e+00
5.728e-02,4.357e+00
6.097e-02,4.416e+00
6.467e-02,4.460e+00
6.837e-02,4.491e+00
7.206e-02,4.511e+00
7.576e-02,4.519e+00
7.945e-02,4.518e+00
8.315e-02,4.508e+00
8.684e-02,4.490e+00
9.054e-02,4.465e+00
9.423e-02,4.434e+00
9.793e-02,4.397e+00
1.016e-01,4.355e+00
1.053e-01,4.309e+00
1.090e-01,4.259e+00
1.127e-01,4.205e+00
1.164e-01,4.148e+00
1.201e-01,4.088e+00
1.238e-01,4.026e+00
1.275e-01,3.963e+00
1.312e-01,3.897e+00
1.349e-01,3.830e+00
1.386e-01,3.761e+00
1.423e-01,3.692e+00
1.460e-01,3.622e+00
1.497e-01,3.551e+00
1.534e-01,3.480e+00
1.571e-01,3.409e+00
1.608e-01,3.337e+00
1.644e-01,3.266e+00
1.681e-01,3.195e+00
1.718e-01,3.123e+00
1.755e-01,3.053e+00
1.792e-01,2.982e+00
1.829e-01,2.912e+00
1.866e-01,2.843e+00
1.903e-01,2.775e+00
1.940e-01,2.707e+00
1.977e-01,2.640e+00
2.014e-01,2.573e+00
2.051e-01,2.508e+00
2.088e-01,2.443e+00
2.125e-01,2.380e+00
2.162e-01,2.317e+00
2.199e-01,2.255e+00
2.236e-01,2.195e+00
2.273e-01,2.135e+00
2.310e-01,2.076e+00
2.347e-01,2.019e+00
2.384e-01,1.962e+00
2.421e-01,1.907e+00
2.457e-01,1.852e+00
2.494e-01,1.799e+00
2.531e-01,1.747e+00
2.568e-01,1.696e+00
2.605e-01,1.645e+00
2.642e-01,1.596e+00
2.679e-01,1.549e+00
2.716e-01,1.502e+00
2.753e-01,1.456e+00
2.790e-01,1.411e+00
2.827e-01,1.367e+00
2.864e-01,1.324e+00
2.901e-01,1.283e+00
2.938e-01,1.242e+00
2.975e-01,1.202e+00
3.012e-01,1.164e+00
3.049e-01,1.126e+00
3.086e-01,1.089e+00
3.123e-01,1.053e+00
3.160e-01,1.018e+00
3.197e-01,9.843e-01
3.234e-01,9.512e-01
3.270e-01,9.190e-01
3.307e-01,8.877e-01
3.344e-01,8.572e-01
3.381e-01,8.275e-01
3.418e-01,7.987e-01
3.455e-01,7.707e-01
3.492e-01,7.435e-01
3.529e-01,7.170e-01
3.566e-01,6.913e-01
3.603e-01,6.664e-01
3.640e-01,6.422e-01
3.677e-01,6.188e-01
3.714e-01,5.960e-01
3.751e-01,5.739e-01
3.788e-01,5.525e-01
3.825e-01,5.317e-01
3.862e-01,5.116e-01
3.899e-01,4.921e-01
3.936e-01,4.733e-01
3.973e-01,4.550e-01
4.010e-01,4.373e-01
4.047e-01,4.202e-01
4.083e-01,4.036e-01
4.120e-01,3.876e-01
4.157e-01,3.721e-01
4.194e-01,3.572e-01
4.231e-01,3.427e-01
4.268e-01,3.287e-01
4.305e-01,3.152e-01
4.342e-01,3.022e-01
4.379e-01,2.896e-01
4.416e-01,2.774e-01
4.453e-01,2.657e-01
4.490e-01,2.544e-01
4.527e-01,2.435e-01
4.564e-01,2.330e-01
4.601e-01,2.229e-01
4.638e-01,2.131e-01
4.675e-01,2.037e-01
4.712e-01,1.947e-01
4.749e-01,1.860e-01
4.786e-01,1.776e-01
4.823e-01,1.695e-01
4.860e-01,1.618e-01
4.896e-01,1.543e-01
4.933e-01,1.472e-01
4.970e-01,1.403e-01
5.007e-01,1.337e-01
5.044e-01,1.273e-01
5.081e-01,1.212e-01
5.118e-01,1.154e-01
5.155e-01,1.098e-01
5.192e-01,1.044e-01
5.229e-01,9.925e-02
5.266e-01,9.431e-02
5.303e-01,8.959e-02
5.340e-01,8.506e-02
5.377e-01,8.073e-02
5.414e-01,7.659e-02
5.451e-01,7.262e-02
5.488e-01,6.883e-02
5.525e-01,6.521e-02
5.562e-01,6.175e-02
5.599e-01,5.845e-02
5.636e-01,5.530e-02
5.673e-01,5.229e-02
5.709e-01,4.942e-02
5.746e-01,4.669e-02
5.783e-01,4.409e-02
5.820e-01,4.160e-02
5.857e-01,3.924e-02
5.894e-01,3.699e-02
5.931e-01,3.486e-02
5.968e-01,3.282e-02
6.005e-01,3.089e-02
6.042e-01,2.906e-02
6.079e-01,2.732e-02
6.116e-01,2.567e-02
6.153e-01,2.410e-02
6.190e-01,2.261e-02
6.227e-01,2.121e-02
6.264e-01,1.988e-02
6.301e-01,1.862e-02
6.338e-01,1.742e-02
6.375e-01,1.630e-02
6.412e-01,1.523e-02
6.449e-01,1.423e-02
6.486e-01,1.328e-02
6.522e-01,1.239e-02
6.559e-01,1.154e-02
6.596e-01,1.075e-02
6.633e-01,1.000e-02
6.670e-01,9.301e-03
6.707e-01,8.641e-03
6.744e-01,8.021e-03
6.781e-01,7.440e-03
6.818e-01,6.894e-03
6.855e-01,6.383e-03
6.892e-01,5.904e-03
6.929e-01,5.456e-03
6.966e-01,5.038e-03
7.003e-01,4.647e-03
7.040e-01,4.282e-03
7.077e-01,3.941e-03
7.114e-01,3.624e-03
7.151e-01,3.329e-03
7.188e-01,3.054e-03
7.225e-01,2.799e-03
7.262e-01,2.562e-03
7.299e-01,2.343e-03
7.335e-01,2.139e-03
7.372e-01,1.951e-03
