transmittance,probability_density
2.080e-03,6.147e-02
6.241e-03,2.547e-01
1.040e-02,4.814e-01
1.456e-02,7.229e-01
1.872e-02,9.678e-01
2.288e-02,1.207e+00
2.704e-02,1.436e+00
3.121e-02,1.650e+00
3.537e-02,1.850e+00
3.953e-02,2.035e+00
4.369e-02,2.205e+00
4.785e-02,2.360e+00
5.201e-02,2.501e+00
5.617e-02,2.629e+00
6.033e-02,2.744e+00
6.449e-02,2.846e+00
6.865e-02,2.938e+00
7.281e-02,3.019e+00
7.697e-02,3.090e+00
8.113e-02,3.152e+00
8.530e-02,3.205e+00
8.946e-02,3.250e+00
9.362e-02,3.288e+00
9.778e-02,3.318e+00
1.019e-01,3.342e+00
1.061e-01,3.360e+00
1.103e-01,3.373e+00
1.144e-01,3.380e+00
1.186e-01,3.382e+00
1.227e-01,3.379e+00
1.269e-01,3.373e+00
1.311e-01,3.362e+00
1.352e-01,3.348e+00
1.394e-01,3.331e+00
1.435e-01,3.311e+00
1.477e-01,3.288e+00
1.519e-01,3.262e+00
1.560e-01,3.234e+00
1.602e-01,3.204e+00
1.643e-01,3.172e+00
1.685e-01,3.138e+00
1.727e-01,3.103e+00
1.768e-01,3.066e+00
1.810e-01,3.028e+00
1.852e-01,2.988e+00
1.893e-01,2.948e+00
1.935e-01,2.906e+00
1.976e-01,2.864e+00
2.018e-01,2.821e+00
2.060e-01,2.778e+00
2.101e-01,2.733e+00
2.143e-01,2.689e+00
2.184e-01,2.644e+00
2.226e-01,2.599e+00
2.268e-01,2.553e+00
2.309e-01,2.507e+00
2.351e-01,2.462e+00
2.392e-01,2.416e+00
2.434e-01,2.370e+00
2.476e-01,2.324e+00
2.517e-01,2.279e+00
2.559e-01,2.233e+00
2.600e-01,2.188e+00
2.642e-01,2.143e+00
2.684e-01,2.099e+00
2.725e-01,2.054e+00
2.767e-01,2.010e+00
2.809e-01,1.966e+00
2.850e-01,1.923e+00
2.892e-01,1.880e+00
2.933e-01,1.838e+00
2.975e-01,1.795e+00
3.017e-01,1.754e+00
3.058e-01,1.713e+00
3.100e-01,1.672e+00
3.141e-01,1.632e+00
3.183e-01,1.593e+00
3.225e-01,1.554e+00
3.266e-01,1.515e+00
3.308e-01,1.477e+00
3.349e-01,1.440e+00
3.391e-01,1.403e+00
3.433e-01,1.367e+00
3.474e-01,1.331e+00
3.516e-01,1.296e+00
3.557e-01,1.262e+00
3.599e-01,1.228e+00
3.641e-01,1.195e+00
3.682e-01,1.162e+00
3.724e-01,1.130e+00
3.765e-01,1.098e+00
3.807e-01,1.067e+00
3.849e-01,1.037e+00
3.890e-01,1.007e+00
3.932e-01,9.782e-01
3.974e-01,9.497e-01
4.015e-01,9.217e-01
4.057e-01,8.943e-01
4.098e-01,8.675e-01
4.140e-01,8.413e-01
4.182e-01,8.156e-01
4.223e-01,7.905e-01
4.265e-01,7.659e-01
4.306e-01,7.419e-01
4.348e-01,7.185e-01
4.390e-01,6.956e-01
4.431e-01,6.732e-01
4.473e-01,6.513e-01
4.514e-01,6.300e-01
4.556e-01,6.092e-01
4.598e-01,5.889e-01
4.639e-01,5.690e-01
4.681e-01,5.497e-01
4.722e-01,5.309e-01
4.764e-01,5.126e-01
4.806e-01,4.947e-01
4.847e-01,4.773e-01
4.889e-01,4.604e-01
4.930e-01,4.439e-01
4.972e-01,4.278e-01
5.014e-01,4.122e-01
5.055e-01,3.971e-01
5.097e-01,3.823e-01
5.139e-01,3.680e-01
5.180e-01,3.541e-01
5.222e-01,3.405e-01
5.263e-01,3.274e-01
5.305e-01,3.147e-01
5.347e-01,3.023e-01
5.388e-01,2.903e-01
5.430e-01,2.787e-01
5.471e-01,2.674e-01
5.513e-01,2.565e-01
5.555e-01,2.460e-01
5.596e-01,2.357e-01
5.638e-01,2.258e-01
5.679e-01,2.162e-01
5.721e-01,2.070e-01
5.763e-01,1.980e-01
5.804e-01,1.893e-01
5.846e-01,1.810e-01
5.887e-01,1.729e-01
5.929e-01,1.651e-01
5.971e-01,1.576e-01
6.012e-01,1.503e-01
6.054e-01,1.433e-01
6.095e-01,1.366e-01
6.137e-01,1.301e-01
6.179e-01,1.238e-01
6.220e-01,1.178e-01
6.262e-01,1.120e-01
6.304e-01,1.065e-01
6.345e-01,1.011e-01
6.387e-01,9.596e-02
6.428e-01,9.103e-02
6.470e-01,8.629e-02
6.512e-01,8.175e-02
6.553e-01,7.739e-02
6.595e-01,7.322e-02
6.636e-01,6.922e-02
6.678e-01,6.540e-02
6.720e-01,6.174e-02
6.761e-01,5.825e-02
6.803e-01,5.490e-02
6.844e-01,5.171e-02
6.886e-01,4.867e-02
6.928e-01,4.577e-02
6.969e-01,4.300e-02
7.011e-01,4.037e-02
7.052e-01,3.786e-02
7.094e-01,3.548e-02
7.136e-01,3.321e-02
7.177e-01,3.106e-02
7.219e-01,2.902e-02
7.261e-01,2.709e-02
7.302e-01,2.526e-02
7.344e-01,2.352e-02
7.385e-01,2.188e-02
7.427e-01,2.034e-02
7.469e-01,1.887e-02
7.510e-01,1.749e-02
7.552e-01,1.620e-02
7.593e-01,1.497e-02
7.635e-01,1.383e-02
7.677e-01,1.275e-02
7.718e-01,1.173e-02
7.760e-01,1.079e-02
7.801e-01,9.900e-03
7.843e-01,9.071e-03
7.885e-01,8.298e-03
7.926e-01,7.577e-03
7.968e-01,6.906e-03
8.009e-01,6.282e-03
8.051e-01,5.704e-03
8.093e-01,5.168e-03
8.134e-01,4.672e-03
8.176e-01,4.214e-03
8.217e-01,3.792e-03
8.259e-01,3.404e-03
8.301e-01,3.048e-03
