transmittance,probability_density
2.500e-03,1.268e-06
7.500e-03,1.315e-03
1.250e-02,3.287e-03
1.750e-02,5.948e-03
2.250e-02,9.828e-03
2.750e-02,1.430e-02
3.250e-02,2.000e-02
3.750e-02,2.687e-02
4.250e-02,3.452e-02
4.750e-02,4.283e-02
5.250e-02,5.193e-02
5.750e-02,6.199e-02
6.250e-02,7.307e-02
6.750e-02,8.516e-02
7.250e-02,9.823e-02
7.750e-02,1.122e-01
8.250e-02,1.271e-01
8.750e-02,1.429e-01
9.250e-02,1.596e-01
9.750e-02,1.773e-01
1.025e-01,1.960e-01
1.075e-01,2.157e-01
1.125e-01,2.364e-01
1.175e-01,2.582e-01
1.225e-01,2.811e-01
1.275e-01,3.050e-01
1.325e-01,3.299e-01
1.375e-01,3.558e-01
1.425e-01,3.826e-01
1.475e-01,4.102e-01
1.525e-01,4.386e-01
1.575e-01,4.678e-01
1.625e-01,4.975e-01
1.675e-01,5.279e-01
1.725e-01,5.587e-01
1.775e-01,5.900e-01
1.825e-01,6.216e-01
1.875e-01,6.536e-01
1.925e-01,6.857e-01
1.975e-01,7.180e-01
2.025e-01,7.504e-01
2.075e-01,7.829e-01
2.125e-01,8.154e-01
2.175e-01,8.478e-01
2.225e-01,8.801e-01
2.275e-01,9.123e-01
2.325e-01,9.443e-01
2.375e-01,9.760e-01
2.425e-01,1.007e+00
2.475e-01,1.039e+00
2.525e-01,1.069e+00
2.575e-01,1.100e+00
2.625e-01,1.130e+00
2.675e-01,1.159e+00
2.725e-01,1.189e+00
2.775e-01,1.217e+00
2.825e-01,1.245e+00
2.875e-01,1.273e+00
2.925e-01,1.300e+00
2.975e-01,1.326e+00
3.025e-01,1.352e+00
3.075e-01,1.377e+00
3.125e-01,1.401e+00
3.175e-01,1.425e+00
3.225e-01,1.448e+00
3.275e-01,1.470e+00
3.325e-01,1.492e+00
3.375e-01,1.513e+00
3.425e-01,1.533e+00
3.475e-01,1.552e+00
3.525e-01,1.571e+00
3.575e-01,1.588e+00
3.625e-01,1.606e+00
3.675e-01,1.622e+00
3.725e-01,1.637e+00
3.775e-01,1.652e+00
3.825e-01,1.666e+00
3.875e-01,1.679e+00
3.925e-01,1.692e+00
3.975e-01,1.703e+00
4.025e-01,1.714e+00
4.075e-01,1.724e+00
4.125e-01,1.734e+00
4.175e-01,1.742e+00
4.225e-01,1.750e+00
4.275e-01,1.757e+00
4.325e-01,1.763e+00
4.375e-01,1.769e+00
4.425e-01,1.774e+00
4.475e-01,1.778e+00
4.525e-01,1.781e+00
4.575e-01,1.784e+00
4.625e-01,1.786e+00
4.675e-01,1.787e+00
4.725e-01,1.788e+00
4.775e-01,1.788e+00
4.825e-01,1.787e+00
4.875e-01,1.786e+00
4.925e-01,1.784e+00
4.975e-01,1.782e+00
5.025e-01,1.778e+00
5.075e-01,1.775e+00
5.125e-01,1.770e+00
5.175e-01,1.765e+00
5.225e-01,1.760e+00
5.275e-01,1.754e+00
5.325e-01,1.747e+00
5.375e-01,1.740e+00
5.425e-01,1.732e+00
5.475e-01,1.724e+00
5.525e-01,1.715e+00
5.575e-01,1.706e+00
5.625e-01,1.697e+00
5.675e-01,1.686e+00
5.725e-01,1.676e+00
5.775e-01,1.665e+00
5.825e-01,1.653e+00
5.875e-01,1.642e+00
5.925e-01,1.629e+00
5.975e-01,1.617e+00
6.025e-01,1.603e+00
6.075e-01,1.590e+00
6.125e-01,1.576e+00
6.175e-01,1.562e+00
6.225e-01,1.547e+00
6.275e-01,1.532e+00
6.325e-01,1.517e+00
6.375e-01,1.502e+00
6.425e-01,1.486e+00
6.475e-01,1.470e+00
6.525e-01,1.453e+00
6.575e-01,1.437e+00
6.625e-01,1.420e+00
6.675e-01,1.402e+00
6.725e-01,1.385e+00
6.775e-01,1.367e+00
6.825e-01,1.349e+00
6.875e-01,1.331e+00
6.925e-01,1.312e+00
6.975e-01,1.294e+00
7.025e-01,1.275e+00
7.075e-01,1.256e+00
7.125e-01,1.236e+00
7.175e-01,1.217e+00
7.225e-01,1.197e+00
7.275e-01,1.178e+00
7.325e-01,1.158e+00
7.375e-01,1.138e+00
7.425e-01,1.117e+00
7.475e-01,1.097e+00
7.525e-01,1.077e+00
7.575e-01,1.056e+00
7.625e-01,1.035e+00
7.675e-01,1.014e+00
7.725e-01,9.933e-01
7.775e-01,9.723e-01
7.825e-01,9.511e-01
7.875e-01,9.299e-01
7.925e-01,9.086e-01
7.975e-01,8.872e-01
8.025e-01,8.657e-01
8.075e-01,8.442e-01
8.125e-01,8.226e-01
8.175e-01,8.009e-01
8.225e-01,7.792e-01
8.275e-01,7.575e-01
8.325e-01,7.357e-01
8.375e-01,7.139e-01
8.425e-01,6.921e-01
8.475e-01,6.702e-01
8.525e-01,6.484e-01
8.575e-01,6.265e-01
8.625e-01,6.046e-01
8.675e-01,5.827e-01
8.725e-01,5.608e-01
8.775e-01,5.389e-01
8.825e-01,5.170e-01
8.875e-01,4.951e-01
8.925e-01,4.733e-01
8.975e-01,4.514e-01
9.025e-01,4.296e-01
9.075e-01,4.078e-01
9.125e-01,3.861e-01
9.175e-01,3.644e-01
9.225e-01,3.427e-01
9.275e-01,3.210e-01
9.325e-01,2.994e-01
9.375e-01,2.779e-01
9.425e-01,2.564e-01
9.475e-01,2.349e-01
9.525e-01,2.134e-01
9.575e-01,1.920e-01
9.625e-01,1.706e-01
9.675e-01,1.493e-01
9.725e-01,1.279e-01
9.775e-01,1.064e-01
9.825e-01,8.479e-02
9.875e-01,6.290e-02
9.925e-01,4.042e-02
9.975e-01,1.622e-02
