transmittance,probability_density
2.500e-03,1.658e-10
7.500e-03,3.336e-04
1.250e-02,1.489e-03
1.750e-02,1.470e-04
2.250e-02,6.092e-04
2.750e-02,1.844e-03
3.250e-02,2.877e-03
3.750e-02,3.452e-03
4.250e-02,4.277e-03
4.750e-02,5.765e-03
5.250e-02,7.815e-03
5.750e-02,1.018e-02
6.250e-02,1.271e-02
6.750e-02,1.540e-02
7.250e-02,1.833e-02
7.750e-02,2.157e-02
8.250e-02,2.518e-02
8.750e-02,2.916e-02
9.250e-02,3.349e-02
9.750e-02,3.815e-02
1.025e-01,4.312e-02
1.075e-01,4.842e-02
1.125e-01,5.405e-02
1.175e-01,6.001e-02
1.225e-01,6.632e-02
1.275e-01,7.296e-02
1.325e-01,7.993e-02
1.375e-01,8.725e-02
1.425e-01,9.491e-02
1.475e-01,1.029e-01
1.525e-01,1.113e-01
1.575e-01,1.201e-01
1.625e-01,1.293e-01
1.675e-01,1.390e-01
1.725e-01,1.492e-01
1.775e-01,1.598e-01
1.825e-01,1.710e-01
1.875e-01,1.827e-01
1.925e-01,1.950e-01
1.975e-01,2.078e-01
2.025e-01,2.211e-01
2.075e-01,2.350e-01
2.125e-01,2.495e-01
2.175e-01,2.646e-01
2.225e-01,2.802e-01
2.275e-01,2.964e-01
2.325e-01,3.132e-01
2.375e-01,3.305e-01
2.425e-01,3.484e-01
2.475e-01,3.669e-01
2.525e-01,3.859e-01
2.575e-01,4.055e-01
2.625e-01,4.256e-01
2.675e-01,4.463e-01
2.725e-01,4.675e-01
2.775e-01,4.891e-01
2.825e-01,5.113e-01
2.875e-01,5.340e-01
2.925e-01,5.571e-01
2.975e-01,5.806e-01
3.025e-01,6.045e-01
3.075e-01,6.288e-01
3.125e-01,6.535e-01
3.175e-01,6.786e-01
3.225e-01,7.039e-01
3.275e-01,7.295e-01
3.325e-01,7.554e-01
3.375e-01,7.816e-01
3.425e-01,8.079e-01
3.475e-01,8.344e-01
3.525e-01,8.610e-01
3.575e-01,8.878e-01
3.625e-01,9.147e-01
3.675e-01,9.416e-01
3.725e-01,9.685e-01
3.775e-01,9.955e-01
3.825e-01,1.022e+00
3.875e-01,1.049e+00
3.925e-01,1.076e+00
3.975e-01,1.103e+00
4.025e-01,1.129e+00
4.075e-01,1.156e+00
4.125e-01,1.182e+00
4.175e-01,1.208e+00
4.225e-01,1.234e+00
4.275e-01,1.259e+00
4.325e-01,1.284e+00
4.375e-01,1.309e+00
4.425e-01,1.334e+00
4.475e-01,1.358e+00
4.525e-01,1.381e+00
4.575e-01,1.405e+00
4.625e-01,1.428e+00
4.675e-01,1.450e+00
4.725e-01,1.472e+00
4.775e-01,1.494e+00
4.825e-01,1.515e+00
4.875e-01,1.536e+00
4.925e-01,1.556e+00
4.975e-01,1.575e+00
5.025e-01,1.594e+00
5.075e-01,1.613e+00
5.125e-01,1.630e+00
5.175e-01,1.648e+00
5.225e-01,1.664e+00
5.275e-01,1.680e+00
5.325e-01,1.695e+00
5.375e-01,1.710e+00
5.425e-01,1.724e+00
5.475e-01,1.738e+00
5.525e-01,1.750e+00
5.575e-01,1.762e+00
5.625e-01,1.774e+00
5.675e-01,1.785e+00
5.725e-01,1.795e+00
5.775e-01,1.804e+00
5.825e-01,1.813e+00
5.875e-01,1.821e+00
5.925e-01,1.828e+00
5.975e-01,1.834e+00
6.025e-01,1.840e+00
6.075e-01,1.845e+00
6.125e-01,1.850e+00
6.175e-01,1.854e+00
6.225e-01,1.857e+00
6.275e-01,1.859e+00
6.325e-01,1.861e+00
6.375e-01,1.862e+00
6.425e-01,1.862e+00
6.475e-01,1.862e+00
6.525e-01,1.860e+00
6.575e-01,1.859e+00
6.625e-01,1.856e+00
6.675e-01,1.853e+00
6.725e-01,1.849e+00
6.775e-01,1.845e+00
6.825e-01,1.840e+00
6.875e-01,1.834e+00
6.925e-01,1.827e+00
6.975e-01,1.820e+00
7.025e-01,1.813e+00
7.075e-01,1.804e+00
7.125e-01,1.795e+00
7.175e-01,1.786e+00
7.225e-01,1.775e+00
7.275e-01,1.765e+00
7.325e-01,1.753e+00
7.375e-01,1.741e+00
7.425e-01,1.729e+00
7.475e-01,1.715e+00
7.525e-01,1.702e+00
7.575e-01,1.687e+00
7.625e-01,1.672e+00
7.675e-01,1.657e+00
7.725e-01,1.641e+00
7.775e-01,1.624e+00
7.825e-01,1.607e+00
7.875e-01,1.590e+00
7.925e-01,1.571e+00
7.975e-01,1.553e+00
8.025e-01,1.533e+00
8.075e-01,1.514e+00
8.125e-01,1.493e+00
8.175e-01,1.472e+00
8.225e-01,1.451e+00
8.275e-01,1.429e+00
8.325e-01,1.407e+00
8.375e-01,1.384e+00
8.425e-01,1.361e+00
8.475e-01,1.337e+00
8.525e-01,1.312e+00
8.575e-01,1.287e+00
8.625e-01,1.262e+00
8.675e-01,1.235e+00
8.725e-01,1.209e+00
8.775e-01,1.182e+00
8.825e-01,1.154e+00
8.875e-01,1.126e+00
8.925e-01,1.097e+00
8.975e-01,1.067e+00
9.025e-01,1.037e+00
9.075e-01,1.006e+00
9.125e-01,9.745e-01
9.175e-01,9.422e-01
9.225e-01,9.091e-01
9.275e-01,8.752e-01
9.325e-01,8.404e-01
9.375e-01,8.047e-01
9.425e-01,7.679e-01
9.475e-01,7.299e-01
9.525e-01,6.906e-01
9.575e-01,6.498e-01
9.625e-01,6.073e-01
9.675e-01,5.627e-01
9.725e-01,5.155e-01
9.775e-01,4.651e-01
9.825e-01,4.102e-01
9.875e-01,3.486e-01
9.925e-01,2.757e-01
9.975e-01,1.735e-01
