transmittance,probability_density
2.500e-03,1.388e-09
7.500e-03,6.208e-07
1.250e-02,1.535e-04
1.750e-02,1.549e-03
2.250e-02,4.001e-03
2.750e-02,5.819e-03
3.250e-02,6.600e-03
3.750e-02,6.851e-03
4.250e-02,7.457e-03
4.750e-02,9.070e-03
5.250e-02,1.184e-02
5.750e-02,1.563e-02
6.250e-02,2.021e-02
6.750e-02,2.538e-02
7.250e-02,3.098e-02
7.750e-02,3.689e-02
8.250e-02,4.301e-02
8.750e-02,4.932e-02
9.250e-02,5.580e-02
9.750e-02,6.246e-02
1.025e-01,6.935e-02
1.075e-01,7.648e-02
1.125e-01,8.392e-02
1.175e-01,9.170e-02
1.225e-01,9.987e-02
1.275e-01,1.085e-01
1.325e-01,1.175e-01
1.375e-01,1.271e-01
1.425e-01,1.371e-01
1.475e-01,1.478e-01
1.525e-01,1.590e-01
1.575e-01,1.709e-01
1.625e-01,1.834e-01
1.675e-01,1.966e-01
1.725e-01,2.105e-01
1.775e-01,2.251e-01
1.825e-01,2.404e-01
1.875e-01,2.564e-01
1.925e-01,2.730e-01
1.975e-01,2.904e-01
2.025e-01,3.084e-01
2.075e-01,3.271e-01
2.125e-01,3.464e-01
2.175e-01,3.664e-01
2.225e-01,3.870e-01
2.275e-01,4.082e-01
2.325e-01,4.299e-01
2.375e-01,4.522e-01
2.425e-01,4.750e-01
2.475e-01,4.983e-01
2.525e-01,5.221e-01
2.575e-01,5.463e-01
2.625e-01,5.710e-01
2.675e-01,5.961e-01
2.725e-01,6.215e-01
2.775e-01,6.473e-01
2.825e-01,6.734e-01
2.875e-01,6.997e-01
2.925e-01,7.264e-01
2.975e-01,7.532e-01
3.025e-01,7.803e-01
3.075e-01,8.074e-01
3.125e-01,8.348e-01
3.175e-01,8.622e-01
3.225e-01,8.896e-01
3.275e-01,9.171e-01
3.325e-01,9.446e-01
3.375e-01,9.721e-01
3.425e-01,9.995e-01
3.475e-01,1.027e+00
3.525e-01,1.054e+00
3.575e-01,1.081e+00
3.625e-01,1.108e+00
3.675e-01,1.134e+00
3.725e-01,1.161e+00
3.775e-01,1.187e+00
3.825e-01,1.213e+00
3.875e-01,1.238e+00
3.925e-01,1.263e+00
3.975e-01,1.288e+00
4.025e-01,1.313e+00
4.075e-01,1.337e+00
4.125e-01,1.360e+00
4.175e-01,1.383e+00
4.225e-01,1.406e+00
4.275e-01,1.428e+00
4.325e-01,1.449e+00
4.375e-01,1.471e+00
4.425e-01,1.491e+00
4.475e-01,1.511e+00
4.525e-01,1.530e+00
4.575e-01,1.549e+00
4.625e-01,1.567e+00
4.675e-01,1.585e+00
4.725e-01,1.602e+00
4.775e-01,1.618e+00
4.825e-01,1.634e+00
4.875e-01,1.649e+00
4.925e-01,1.664e+00
4.975e-01,1.677e+00
5.025e-01,1.691e+00
5.075e-01,1.703e+00
5.125e-01,1.715e+00
5.175e-01,1.726e+00
5.225e-01,1.736e+00
5.275e-01,1.746e+00
5.325e-01,1.755e+00
5.375e-01,1.764e+00
5.425e-01,1.771e+00
5.475e-01,1.779e+00
5.525e-01,1.785e+00
5.575e-01,1.791e+00
5.625e-01,1.796e+00
5.675e-01,1.800e+00
5.725e-01,1.804e+00
5.775e-01,1.807e+00
5.825e-01,1.809e+00
5.875e-01,1.811e+00
5.925e-01,1.812e+00
5.975e-01,1.813e+00
6.025e-01,1.812e+00
6.075e-01,1.812e+00
6.125e-01,1.810e+00
6.175e-01,1.808e+00
6.225e-01,1.805e+00
6.275e-01,1.802e+00
6.325e-01,1.798e+00
6.375e-01,1.794e+00
6.425e-01,1.789e+00
6.475e-01,1.783e+00
6.525e-01,1.777e+00
6.575e-01,1.770e+00
6.625e-01,1.763e+00
6.675e-01,1.755e+00
6.725e-01,1.746e+00
6.775e-01,1.737e+00
6.825e-01,1.728e+00
6.875e-01,1.718e+00
6.925e-01,1.707e+00
6.975e-01,1.696e+00
7.025e-01,1.684e+00
7.075e-01,1.672e+00
7.125e-01,1.659e+00
7.175e-01,1.646e+00
7.225e-01,1.633e+00
7.275e-01,1.619e+00
7.325e-01,1.604e+00
7.375e-01,1.589e+00
7.425e-01,1.574e+00
7.475e-01,1.558e+00
7.525e-01,1.541e+00
7.575e-01,1.524e+00
7.625e-01,1.507e+00
7.675e-01,1.489e+00
7.725e-01,1.471e+00
7.775e-01,1.453e+00
7.825e-01,1.434e+00
7.875e-01,1.415e+00
7.925e-01,1.395e+00
7.975e-01,1.375e+00
8.025e-01,1.354e+00
8.075e-01,1.333e+00
8.125e-01,1.312e+00
8.175e-01,1.290e+00
8.225e-01,1.268e+00
8.275e-01,1.245e+00
8.325e-01,1.222e+00
8.375e-01,1.199e+00
8.425e-01,1.175e+00
8.475e-01,1.151e+00
8.525e-01,1.126e+00
8.575e-01,1.102e+00
8.625e-01,1.076e+00
8.675e-01,1.050e+00
8.725e-01,1.024e+00
8.775e-01,9.978e-01
8.825e-01,9.709e-01
8.875e-01,9.435e-01
8.925e-01,9.157e-01
8.975e-01,8.874e-01
9.025e-01,8.586e-01
9.075e-01,8.294e-01
9.125e-01,7.997e-01
9.175e-01,7.694e-01
9.225e-01,7.386e-01
9.275e-01,7.072e-01
9.325e-01,6.752e-01
9.375e-01,6.424e-01
9.425e-01,6.089e-01
9.475e-01,5.746e-01
9.525e-01,5.394e-01
9.575e-01,5.030e-01
9.625e-01,4.655e-01
9.675e-01,4.264e-01
9.725e-01,3.856e-01
9.775e-01,3.424e-01
9.825e-01,2.961e-01
9.875e-01,2.452e-01
9.925e-01,1.863e-01
9.975e-01,1.076e-01
