transmittance,probability_density
2.500e-03,1.182e-04
7.500e-03,4.156e-03
1.250e-02,1.175e-02
1.750e-02,2.126e-02
2.250e-02,3.033e-02
2.750e-02,3.929e-02
3.250e-02,4.912e-02
3.750e-02,6.086e-02
4.250e-02,7.511e-02
4.750e-02,9.206e-02
5.250e-02,1.116e-01
5.750e-02,1.336e-01
6.250e-02,1.579e-01
6.750e-02,1.841e-01
7.250e-02,2.121e-01
7.750e-02,2.418e-01
8.250e-02,2.729e-01
8.750e-02,3.054e-01
9.250e-02,3.392e-01
9.750e-02,3.740e-01
1.025e-01,4.099e-01
1.075e-01,4.467e-01
1.125e-01,4.843e-01
1.175e-01,5.225e-01
1.225e-01,5.614e-01
1.275e-01,6.007e-01
1.325e-01,6.403e-01
1.375e-01,6.803e-01
1.425e-01,7.204e-01
1.475e-01,7.605e-01
1.525e-01,8.006e-01
1.575e-01,8.406e-01
1.625e-01,8.804e-01
1.675e-01,9.200e-01
1.725e-01,9.592e-01
1.775e-01,9.980e-01
1.825e-01,1.036e+00
1.875e-01,1.074e+00
1.925e-01,1.111e+00
1.975e-01,1.148e+00
2.025e-01,1.184e+00
2.075e-01,1.219e+00
2.125e-01,1.253e+00
2.175e-01,1.287e+00
2.225e-01,1.319e+00
2.275e-01,1.351e+00
2.325e-01,1.382e+00
2.375e-01,1.412e+00
2.425e-01,1.441e+00
2.475e-01,1.469e+00
2.525e-01,1.497e+00
2.575e-01,1.523e+00
2.625e-01,1.548e+00
2.675e-01,1.572e+00
2.725e-01,1.595e+00
2.775e-01,1.617e+00
2.825e-01,1.638e+00
2.875e-01,1.659e+00
2.925e-01,1.678e+00
2.975e-01,1.696e+00
3.025e-01,1.713e+00
3.075e-01,1.729e+00
3.125e-01,1.743e+00
3.175e-01,1.757e+00
3.225e-01,1.770e+00
3.275e-01,1.782e+00
3.325e-01,1.793e+00
3.375e-01,1.803e+00
3.425e-01,1.812e+00
3.475e-01,1.821e+00
3.525e-01,1.828e+00
3.575e-01,1.834e+00
3.625e-01,1.840e+00
3.675e-01,1.844e+00
3.725e-01,1.848e+00
3.775e-01,1.851e+00
3.825e-01,1.853e+00
3.875e-01,1.854e+00
3.925e-01,1.854e+00
3.975e-01,1.854e+00
4.025e-01,1.853e+00
4.075e-01,1.851e+00
4.125e-01,1.848e+00
4.175e-01,1.845e+00
4.225e-01,1.841e+00
4.275e-01,1.836e+00
4.325e-01,1.830e+00
4.375e-01,1.824e+00
4.425e-01,1.818e+00
4.475e-01,1.810e+00
4.525e-01,1.803e+00
4.575e-01,1.794e+00
4.625e-01,1.785e+00
4.675e-01,1.776e+00
4.725e-01,1.766e+00
4.775e-01,1.755e+00
4.825e-01,1.744e+00
4.875e-01,1.732e+00
4.925e-01,1.720e+00
4.975e-01,1.708e+00
5.025e-01,1.695e+00
5.075e-01,1.682e+00
5.125e-01,1.668e+00
5.175e-01,1.654e+00
5.225e-01,1.639e+00
5.275e-01,1.624e+00
5.325e-01,1.609e+00
5.375e-01,1.594e+00
5.425e-01,1.578e+00
5.475e-01,1.562e+00
5.525e-01,1.545e+00
5.575e-01,1.528e+00
5.625e-01,1.511e+00
5.675e-01,1.494e+00
5.725e-01,1.477e+00
5.775e-01,1.459e+00
5.825e-01,1.441e+00
5.875e-01,1.423e+00
5.925e-01,1.404e+00
5.975e-01,1.386e+00
6.025e-01,1.367e+00
6.075e-01,1.348e+00
6.125e-01,1.329e+00
6.175e-01,1.310e+00
6.225e-01,1.291e+00
6.275e-01,1.271e+00
6.325e-01,1.251e+00
6.375e-01,1.232e+00
6.425e-01,1.212e+00
6.475e-01,1.192e+00
6.525e-01,1.172e+00
6.575e-01,1.152e+00
6.625e-01,1.132e+00
6.675e-01,1.112e+00
6.725e-01,1.091e+00
6.775e-01,1.071e+00
6.825e-01,1.051e+00
6.875e-01,1.031e+00
6.925e-01,1.010e+00
6.975e-01,9.899e-01
7.025e-01,9.695e-01
7.075e-01,9.492e-01
7.125e-01,9.288e-01
7.175e-01,9.085e-01
7.225e-01,8.882e-01
7.275e-01,8.679e-01
7.325e-01,8.477e-01
7.375e-01,8.275e-01
7.425e-01,8.074e-01
7.475e-01,7.873e-01
7.525e-01,7.673e-01
7.575e-01,7.473e-01
7.625e-01,7.275e-01
7.675e-01,7.077e-01
7.725e-01,6.880e-01
7.775e-01,6.684e-01
7.825e-01,6.489e-01
7.875e-01,6.295e-01
7.925e-01,6.102e-01
7.975e-01,5.910e-01
8.025e-01,5.719e-01
8.075e-01,5.530e-01
8.125e-01,5.342e-01
8.175e-01,5.156e-01
8.225e-01,4.971e-01
8.275e-01,4.788e-01
8.325e-01,4.606e-01
8.375e-01,4.426e-01
8.425e-01,4.247e-01
8.475e-01,4.070e-01
8.525e-01,3.895e-01
8.575e-01,3.722e-01
8.625e-01,3.551e-01
8.675e-01,3.382e-01
8.725e-01,3.215e-01
8.775e-01,3.051e-01
8.825e-01,2.888e-01
8.875e-01,2.728e-01
8.925e-01,2.570e-01
8.975e-01,2.414e-01
9.025e-01,2.261e-01
9.075e-01,2.111e-01
9.125e-01,1.964e-01
9.175e-01,1.819e-01
9.225e-01,1.677e-01
9.275e-01,1.538e-01
9.325e-01,1.402e-01
9.375e-01,1.270e-01
9.425e-01,1.141e-01
9.475e-01,1.016e-01
9.525e-01,8.940e-02
9.575e-01,7.763e-02
9.625e-01,6.629e-02
9.675e-01,5.539e-02
9.725e-01,4.498e-02
9.775e-01,3.510e-02
9.825e-01,2.580e-02
9.875e-01,1.717e-02
9.925e-01,9.350e-03
9.975e-01,2.621e-03
