transmittance,probability_density
2.500e-03,1.603e-20
7.500e-03,1.392e-14
1.250e-02,4.101e-06
1.750e-02,1.411e-03
2.250e-02,6.111e-04
2.750e-02,6.622e-04
3.250e-02,1.049e-03
3.750e-02,2.526e-04
4.250e-02,7.564e-05
4.750e-02,3.862e-04
5.250e-02,1.067e-03
5.750e-02,1.648e-03
6.250e-02,1.960e-03
6.750e-02,2.485e-03
7.250e-02,3.374e-03
7.750e-02,4.207e-03
8.250e-02,4.625e-03
8.750e-02,4.730e-03
9.250e-02,4.906e-03
9.750e-02,5.449e-03
1.025e-01,6.433e-03
1.075e-01,7.802e-03
1.125e-01,9.480e-03
1.175e-01,1.139e-02
1.225e-01,1.343e-02
1.275e-01,1.548e-02
1.325e-01,1.743e-02
1.375e-01,1.921e-02
1.425e-01,2.080e-02
1.475e-01,2.226e-02
1.525e-01,2.367e-02
1.575e-01,2.517e-02
1.625e-01,2.687e-02
1.675e-01,2.884e-02
1.725e-01,3.113e-02
1.775e-01,3.373e-02
1.825e-01,3.660e-02
1.875e-01,3.968e-02
1.925e-01,4.296e-02
1.975e-01,4.641e-02
2.025e-01,5.004e-02
2.075e-01,5.387e-02
2.125e-01,5.792e-02
2.175e-01,6.221e-02
2.225e-01,6.675e-02
2.275e-01,7.155e-02
2.325e-01,7.659e-02
2.375e-01,8.187e-02
2.425e-01,8.736e-02
2.475e-01,9.303e-02
2.525e-01,9.888e-02
2.575e-01,1.049e-01
2.625e-01,1.110e-01
2.675e-01,1.172e-01
2.725e-01,1.236e-01
2.775e-01,1.300e-01
2.825e-01,1.366e-01
2.875e-01,1.434e-01
2.925e-01,1.503e-01
2.975e-01,1.574e-01
3.025e-01,1.647e-01
3.075e-01,1.723e-01
3.125e-01,1.801e-01
3.175e-01,1.882e-01
3.225e-01,1.967e-01
3.275e-01,2.056e-01
3.325e-01,2.148e-01
3.375e-01,2.245e-01
3.425e-01,2.346e-01
3.475e-01,2.452e-01
3.525e-01,2.563e-01
3.575e-01,2.678e-01
3.625e-01,2.798e-01
3.675e-01,2.924e-01
3.725e-01,3.054e-01
3.775e-01,3.189e-01
3.825e-01,3.328e-01
3.875e-01,3.473e-01
3.925e-01,3.622e-01
3.975e-01,3.776e-01
4.025e-01,3.934e-01
4.075e-01,4.097e-01
4.125e-01,4.265e-01
4.175e-01,4.437e-01
4.225e-01,4.613e-01
4.275e-01,4.795e-01
4.325e-01,4.981e-01
4.375e-01,5.172e-01
4.425e-01,5.368e-01
4.475e-01,5.570e-01
4.525e-01,5.776e-01
4.575e-01,5.988e-01
4.625e-01,6.206e-01
4.675e-01,6.429e-01
4.725e-01,6.658e-01
4.775e-01,6.893e-01
4.825e-01,7.134e-01
4.875e-01,7.380e-01
4.925e-01,7.633e-01
4.975e-01,7.893e-01
5.025e-01,8.158e-01
5.075e-01,8.430e-01
5.125e-01,8.707e-01
5.175e-01,8.991e-01
5.225e-01,9.281e-01
5.275e-01,9.578e-01
5.325e-01,9.879e-01
5.375e-01,1.019e+00
5.425e-01,1.050e+00
5.475e-01,1.082e+00
5.525e-01,1.114e+00
5.575e-01,1.147e+00
5.625e-01,1.181e+00
5.675e-01,1.214e+00
5.725e-01,1.249e+00
5.775e-01,1.283e+00
5.825e-01,1.318e+00
5.875e-01,1.353e+00
5.925e-01,1.389e+00
5.975e-01,1.424e+00
6.025e-01,1.460e+00
6.075e-01,1.496e+00
6.125e-01,1.532e+00
6.175e-01,1.568e+00
6.225e-01,1.603e+00
6.275e-01,1.639e+00
6.325e-01,1.675e+00
6.375e-01,1.710e+00
6.425e-01,1.745e+00
6.475e-01,1.780e+00
6.525e-01,1.814e+00
6.575e-01,1.848e+00
6.625e-01,1.882e+00
6.675e-01,1.915e+00
6.725e-01,1.947e+00
6.775e-01,1.979e+00
6.825e-01,2.010e+00
6.875e-01,2.040e+00
6.925e-01,2.069e+00
6.975e-01,2.098e+00
7.025e-01,2.125e+00
7.075e-01,2.152e+00
7.125e-01,2.178e+00
7.175e-01,2.202e+00
7.225e-01,2.226e+00
7.275e-01,2.248e+00
7.325e-01,2.270e+00
7.375e-01,2.290e+00
7.425e-01,2.308e+00
7.475e-01,2.326e+00
7.525e-01,2.342e+00
7.575e-01,2.357e+00
7.625e-01,2.370e+00
7.675e-01,2.383e+00
7.725e-01,2.393e+00
7.775e-01,2.402e+00
7.825e-01,2.410e+00
7.875e-01,2.416e+00
7.925e-01,2.421e+00
7.975e-01,2.424e+00
8.025e-01,2.425e+00
8.075e-01,2.425e+00
8.125e-01,2.423e+00
8.175e-01,2.419e+00
8.225e-01,2.414e+00
8.275e-01,2.407e+00
8.325e-01,2.399e+00
8.375e-01,2.388e+00
8.425e-01,2.376e+00
8.475e-01,2.362e+00
8.525e-01,2.346e+00
8.575e-01,2.329e+00
8.625e-01,2.309e+00
8.675e-01,2.288e+00
8.725e-01,2.264e+00
8.775e-01,2.239e+00
8.825e-01,2.211e+00
8.875e-01,2.182e+00
8.925e-01,2.150e+00
8.975e-01,2.116e+00
9.025e-01,2.080e+00
9.075e-01,2.042e+00
9.125e-01,2.001e+00
9.175e-01,1.957e+00
9.225e-01,1.911e+00
9.275e-01,1.862e+00
9.325e-01,1.810e+00
9.375e-01,1.755e+00
9.425e-01,1.696e+00
9.475e-01,1.634e+00
9.525e-01,1.567e+00
9.575e-01,1.496e+00
9.625e-01,1.420e+00
9.675e-01,1.338e+00
9.725e-01,1.248e+00
9.775e-01,1.150e+00
9.825e-01,1.040e+00
9.875e-01,9.127e-01
9.925e-01,7.566e-01
9.975e-01,5.277e-01
