transmittance,probability_density
1.925e-03,0.000e+00
5.774e-03,7.793e-03
9.624e-03,3.637e-02
1.347e-02,9.872e-02
1.732e-02,2.000e-01
2.117e-02,3.429e-01
2.502e-02,4.442e-01
2.887e-02,6.884e-01
3.272e-02,8.027e-01
3.657e-02,1.125e+00
4.042e-02,1.455e+00
4.427e-02,1.717e+00
4.812e-02,2.091e+00
5.197e-02,2.356e+00
5.582e-02,2.917e+00
5.967e-02,3.312e+00
6.352e-02,3.642e+00
6.737e-02,4.450e+00
7.121e-02,5.086e+00
7.506e-02,5.715e+00
7.891e-02,6.297e+00
8.276e-02,6.967e+00
8.661e-02,7.388e+00
9.046e-02,7.895e+00
9.431e-02,8.936e+00
9.816e-02,9.427e+00
1.020e-01,9.913e+00
1.059e-01,1.004e+01
1.097e-01,1.021e+01
1.136e-01,1.054e+01
1.174e-01,1.055e+01
1.213e-01,1.077e+01
1.251e-01,1.013e+01
1.290e-01,9.822e+00
1.328e-01,9.887e+00
1.367e-01,9.196e+00
1.405e-01,8.638e+00
1.444e-01,7.879e+00
1.482e-01,7.440e+00
1.521e-01,6.632e+00
1.559e-01,6.066e+00
1.598e-01,5.536e+00
1.636e-01,4.988e+00
1.675e-01,4.356e+00
1.713e-01,3.790e+00
1.751e-01,3.421e+00
1.790e-01,2.876e+00
1.828e-01,2.294e+00
1.867e-01,2.037e+00
1.905e-01,1.811e+00
1.944e-01,1.587e+00
1.982e-01,1.198e+00
2.021e-01,9.274e-01
2.059e-01,7.819e-01
2.098e-01,6.417e-01
2.136e-01,5.741e-01
2.175e-01,4.286e-01
2.213e-01,3.299e-01
2.252e-01,2.650e-01
2.290e-01,2.000e-01
2.329e-01,1.663e-01
2.367e-01,1.299e-01
2.406e-01,1.065e-01
2.444e-01,5.455e-02
2.483e-01,5.975e-02
2.521e-01,2.598e-02
2.560e-01,4.156e-02
2.598e-01,1.039e-02
2.637e-01,1.039e-02
2.675e-01,2.598e-03
2.714e-01,1.039e-02
2.752e-01,2.598e-03
2.791e-01,2.598e-03
2.829e-01,2.598e-03
2.868e-01,2.598e-03
2.906e-01,0.000e+00
2.945e-01,0.000e+00
2.983e-01,2.598e-03
3.022e-01,0.000e+00
3.060e-01,0.000e+00
3.099e-01,0.000e+00
3.137e-01,0.000e+00
3.176e-01,0.000e+00
3.214e-01,0.000e+00
3.253e-01,0.000e+00
3.291e-01,0.000e+00
3.330e-01,0.000e+00
3.368e-01,0.000e+00
3.407e-01,0.000e+00
3.445e-01,0.000e+00
3.484e-01,0.000e+00
3.522e-01,0.000e+00
3.561e-01,0.000e+00
3.599e-01,0.000e+00
3.638e-01,0.000e+00
3.676e-01,0.000e+00
3.715e-01,0.000e+00
3.753e-01,0.000e+00
3.792e-01,0.000e+00
3.830e-01,0.000e+00
3.869e-01,0.000e+00
3.907e-01,0.000e+00
3.946e-01,0.000e+00
3.984e-01,0.000e+00
4.023e-01,0.000e+00
4.061e-01,0.000e+00
4.100e-01,0.000e+00
4.138e-01,0.000e+00
4.177e-01,0.000e+00
4.215e-01,0.000e+00
4.254e-01,0.000e+00
4.292e-01,0.000e+00
4.331e-01,0.000e+00
4.369e-01,0.000e+00
4.408e-01,0.000e+00
4.446e-01,0.000e+00
4.485e-01,0.000e+00
4.523e-01,0.000e+00
4.562e-01,0.000e+00
4.600e-01,0.000e+00
4.639e-01,0.000e+00
4.677e-01,0.000e+00
4.716e-01,0.000e+00
4.754e-01,0.000e+00
4.793e-01,0.000e+00
4.831e-01,0.000e+00
4.870e-01,0.000e+00
4.908e-01,0.000e+00
4.947e-01,0.000e+00
4.985e-01,0.000e+00
5.024e-01,0.000e+00
5.062e-01,0.000e+00
5.101e-01,0.000e+00
5.139e-01,0.000e+00
5.178e-01,0.000e+00
5.216e-01,0.000e+00
5.254e-01,0.000e+00
5.293e-01,0.000e+00
5.331e-01,0.000e+00
5.370e-01,0.000e+00
5.408e-01,0.000e+00
5.447e-01,0.000e+00
5.485e-01,0.000e+00
5.524e-01,0.000e+00
5.562e-01,0.000e+00
5.601e-01,0.000e+00
5.639e-01,0.000e+00
5.678e-01,0.000e+00
5.716e-01,0.000e+00
5.755e-01,0.000e+00
5.793e-01,0.000e+00
5.832e-01,0.000e+00
5.870e-01,0.000e+00
5.909e-01,0.000e+00
5.947e-01,0.000e+00
5.986e-01,0.000e+00
6.024e-01,0.000e+00
6.063e-01,0.000e+00
6.101e-01,0.000e+00
6.140e-01,0.000e+00
6.178e-01,0.000e+00
6.217e-01,0.000e+00
6.255e-01,0.000e+00
6.294e-01,0.000e+00
6.332e-01,0.000e+00
6.371e-01,0.000e+00
6.409e-01,0.000e+00
6.448e-01,0.000e+00
6.486e-01,0.000e+00
6.525e-01,0.000e+00
6.563e-01,0.000e+00
6.602e-01,0.000e+00
6.640e-01,0.000e+00
6.679e-01,0.000e+00
6.717e-01,0.000e+00
6.756e-01,0.000e+00
6.794e-01,0.000e+00
6.833e-01,0.000e+00
6.871e-01,0.000e+00
6.910e-01,0.000e+00
6.948e-01,0.000e+00
6.987e-01,0.000e+00
7.025e-01,0.000e+00
7.064e-01,0.000e+00
7.102e-01,0.000e+00
7.141e-01,0.000e+00
7.179e-01,0.000e+00
7.218e-01,0.000e+00
7.256e-01,0.000e+00
7.295e-01,0.000e+00
7.333e-01,0.000e+00
7.372e-01,0.000e+00
7.410e-01,0.000e+00
7.449e-01,0.000e+00
7.487e-01,0.000e+00
7.526e-01,0.000e+00
7.564e-01,0.000e+00
7.603e-01,0.000e+00
7.641e-01,0.000e+00
7.680e-01,0.000e+00
