transmittance,probability_density
1.417e-04,7.223e+00
4.250e-04,5.065e+01
7.083e-04,1.055e+02
9.916e-04,1.504e+02
1.275e-03,1.797e+02
1.558e-03,1.949e+02
1.841e-03,1.997e+02
2.125e-03,1.971e+02
2.408e-03,1.899e+02
2.691e-03,1.799e+02
2.975e-03,1.684e+02
3.258e-03,1.563e+02
3.541e-03,1.443e+02
3.825e-03,1.326e+02
4.108e-03,1.215e+02
4.391e-03,1.111e+02
4.675e-03,1.014e+02
4.958e-03,9.255e+01
5.241e-03,8.440e+01
5.524e-03,7.695e+01
5.808e-03,7.017e+01
6.091e-03,6.401e+01
6.374e-03,5.841e+01
6.658e-03,5.333e+01
6.941e-03,4.872e+01
7.224e-03,4.454e+01
7.508e-03,4.076e+01
7.791e-03,3.732e+01
8.074e-03,3.420e+01
8.357e-03,3.136e+01
8.641e-03,2.879e+01
8.924e-03,2.645e+01
9.207e-03,2.432e+01
9.491e-03,2.238e+01
9.774e-03,2.061e+01
1.006e-02,1.900e+01
1.034e-02,1.753e+01
1.062e-02,1.619e+01
1.091e-02,1.496e+01
1.119e-02,1.383e+01
1.147e-02,1.280e+01
1.176e-02,1.186e+01
1.204e-02,1.100e+01
1.232e-02,1.020e+01
1.261e-02,9.470e+00
1.289e-02,8.799e+00
1.317e-02,8.181e+00
1.346e-02,7.612e+00
1.374e-02,7.087e+00
1.402e-02,6.603e+00
1.431e-02,6.156e+00
1.459e-02,5.743e+00
1.487e-02,5.362e+00
1.516e-02,5.009e+00
1.544e-02,4.682e+00
1.572e-02,4.379e+00
1.601e-02,4.098e+00
1.629e-02,3.837e+00
1.657e-02,3.595e+00
1.686e-02,3.370e+00
1.714e-02,3.161e+00
1.742e-02,2.967e+00
1.771e-02,2.786e+00
1.799e-02,2.618e+00
1.827e-02,2.460e+00
1.856e-02,2.314e+00
1.884e-02,2.177e+00
1.912e-02,2.050e+00
1.941e-02,1.931e+00
1.969e-02,1.819e+00
1.997e-02,1.715e+00
2.026e-02,1.618e+00
2.054e-02,1.526e+00
2.082e-02,1.441e+00
2.111e-02,1.361e+00
2.139e-02,1.286e+00
2.167e-02,1.215e+00
2.196e-02,1.149e+00
2.224e-02,1.087e+00
2.252e-02,1.029e+00
2.281e-02,9.741e-01
2.309e-02,9.226e-01
2.337e-02,8.742e-01
2.366e-02,8.286e-01
2.394e-02,7.857e-01
2.422e-02,7.452e-01
2.451e-02,7.071e-01
2.479e-02,6.712e-01
2.507e-02,6.374e-01
2.536e-02,6.054e-01
2.564e-02,5.753e-01
2.592e-02,5.468e-01
2.621e-02,5.199e-01
2.649e-02,4.945e-01
2.677e-02,4.705e-01
2.706e-02,4.478e-01
2.734e-02,4.263e-01
2.762e-02,4.060e-01
2.791e-02,3.868e-01
2.819e-02,3.686e-01
2.847e-02,3.513e-01
2.876e-02,3.350e-01
2.904e-02,3.195e-01
2.932e-02,3.048e-01
2.961e-02,2.908e-01
2.989e-02,2.776e-01
3.017e-02,2.651e-01
3.046e-02,2.531e-01
3.074e-02,2.418e-01
3.102e-02,2.311e-01
3.131e-02,2.209e-01
3.159e-02,2.112e-01
3.187e-02,2.019e-01
3.216e-02,1.931e-01
3.244e-02,1.848e-01
3.272e-02,1.768e-01
3.301e-02,1.693e-01
3.329e-02,1.621e-01
3.357e-02,1.552e-01
3.385e-02,1.487e-01
3.414e-02,1.424e-01
3.442e-02,1.365e-01
3.470e-02,1.308e-01
3.499e-02,1.254e-01
3.527e-02,1.203e-01
3.555e-02,1.154e-01
3.584e-02,1.107e-01
3.612e-02,1.062e-01
3.640e-02,1.019e-01
3.669e-02,9.784e-02
3.697e-02,9.394e-02
3.725e-02,9.021e-02
3.754e-02,8.665e-02
3.782e-02,8.325e-02
3.810e-02,7.999e-02
3.839e-02,7.688e-02
3.867e-02,7.390e-02
3.895e-02,7.105e-02
3.924e-02,6.832e-02
3.952e-02,6.571e-02
3.980e-02,6.321e-02
4.009e-02,6.082e-02
4.037e-02,5.853e-02
4.065e-02,5.633e-02
4.094e-02,5.423e-02
4.122e-02,5.221e-02
4.150e-02,5.028e-02
4.179e-02,4.843e-02
4.207e-02,4.665e-02
4.235e-02,4.494e-02
4.264e-02,4.331e-02
4.292e-02,4.174e-02
4.320e-02,4.024e-02
4.349e-02,3.879e-02
4.377e-02,3.740e-02
4.405e-02,3.607e-02
4.434e-02,3.479e-02
4.462e-02,3.356e-02
4.490e-02,3.238e-02
4.519e-02,3.125e-02
4.547e-02,3.016e-02
4.575e-02,2.911e-02
4.604e-02,2.810e-02
4.632e-02,2.714e-02
4.660e-02,2.620e-02
4.689e-02,2.531e-02
4.717e-02,2.445e-02
4.745e-02,2.362e-02
4.774e-02,2.282e-02
4.802e-02,2.205e-02
4.830e-02,2.131e-02
4.859e-02,2.060e-02
4.887e-02,1.992e-02
4.915e-02,1.926e-02
4.944e-02,1.862e-02
4.972e-02,1.801e-02
5.000e-02,1.742e-02
5.029e-02,1.685e-02
5.057e-02,1.630e-02
5.085e-02,1.577e-02
5.114e-02,1.527e-02
5.142e-02,1.477e-02
5.170e-02,1.430e-02
5.199e-02,1.385e-02
5.227e-02,1.341e-02
5.255e-02,1.298e-02
5.284e-02,1.257e-02
5.312e-02,1.218e-02
5.340e-02,1.179e-02
5.369e-02,1.143e-02
5.397e-02,1.107e-02
5.425e-02,1.073e-02
5.454e-02,1.040e-02
5.482e-02,1.008e-02
5.510e-02,9.766e-03
5.539e-02,9.467e-03
5.567e-02,9.179e-03
5.595e-02,8.900e-03
5.624e-02,8.631e-03
5.652e-02,8.371e-03
