transmittance,probability_density
4.103e-04,4.756e-01
1.231e-03,4.853e+00
2.052e-03,1.279e+01
2.872e-03,2.204e+01
3.693e-03,3.073e+01
4.513e-03,3.789e+01
5.334e-03,4.323e+01
6.155e-03,4.683e+01
6.975e-03,4.893e+01
7.796e-03,4.979e+01
8.616e-03,4.969e+01
9.437e-03,4.887e+01
1.026e-02,4.752e+01
1.108e-02,4.581e+01
1.190e-02,4.385e+01
1.272e-02,4.175e+01
1.354e-02,3.958e+01
1.436e-02,3.739e+01
1.518e-02,3.523e+01
1.600e-02,3.312e+01
1.682e-02,3.108e+01
1.764e-02,2.913e+01
1.846e-02,2.727e+01
1.928e-02,2.551e+01
2.010e-02,2.385e+01
2.093e-02,2.229e+01
2.175e-02,2.082e+01
2.257e-02,1.944e+01
2.339e-02,1.816e+01
2.421e-02,1.696e+01
2.503e-02,1.584e+01
2.585e-02,1.480e+01
2.667e-02,1.383e+01
2.749e-02,1.292e+01
2.831e-02,1.208e+01
2.913e-02,1.129e+01
2.995e-02,1.056e+01
3.077e-02,9.884e+00
3.159e-02,9.252e+00
3.241e-02,8.664e+00
3.323e-02,8.116e+00
3.405e-02,7.605e+00
3.488e-02,7.130e+00
3.570e-02,6.687e+00
3.652e-02,6.275e+00
3.734e-02,5.890e+00
3.816e-02,5.531e+00
3.898e-02,5.196e+00
3.980e-02,4.884e+00
4.062e-02,4.592e+00
4.144e-02,4.320e+00
4.226e-02,4.065e+00
4.308e-02,3.827e+00
4.390e-02,3.605e+00
4.472e-02,3.397e+00
4.554e-02,3.202e+00
4.636e-02,3.020e+00
4.718e-02,2.849e+00
4.801e-02,2.689e+00
4.883e-02,2.538e+00
4.965e-02,2.398e+00
5.047e-02,2.265e+00
5.129e-02,2.142e+00
5.211e-02,2.025e+00
5.293e-02,1.916e+00
5.375e-02,1.813e+00
5.457e-02,1.716e+00
5.539e-02,1.625e+00
5.621e-02,1.540e+00
5.703e-02,1.459e+00
5.785e-02,1.383e+00
5.867e-02,1.312e+00
5.949e-02,1.245e+00
6.031e-02,1.181e+00
6.113e-02,1.121e+00
6.196e-02,1.065e+00
6.278e-02,1.012e+00
6.360e-02,9.613e-01
6.442e-02,9.138e-01
6.524e-02,8.689e-01
6.606e-02,8.265e-01
6.688e-02,7.863e-01
6.770e-02,7.484e-01
6.852e-02,7.125e-01
6.934e-02,6.785e-01
7.016e-02,6.463e-01
7.098e-02,6.158e-01
7.180e-02,5.870e-01
7.262e-02,5.596e-01
7.344e-02,5.337e-01
7.426e-02,5.091e-01
7.508e-02,4.858e-01
7.591e-02,4.636e-01
7.673e-02,4.426e-01
7.755e-02,4.227e-01
7.837e-02,4.037e-01
7.919e-02,3.857e-01
8.001e-02,3.686e-01
8.083e-02,3.524e-01
8.165e-02,3.369e-01
8.247e-02,3.222e-01
8.329e-02,3.082e-01
8.411e-02,2.949e-01
8.493e-02,2.823e-01
8.575e-02,2.702e-01
8.657e-02,2.587e-01
8.739e-02,2.478e-01
8.821e-02,2.374e-01
8.904e-02,2.274e-01
8.986e-02,2.180e-01
9.068e-02,2.089e-01
9.150e-02,2.003e-01
9.232e-02,1.921e-01
9.314e-02,1.842e-01
9.396e-02,1.768e-01
9.478e-02,1.696e-01
9.560e-02,1.628e-01
9.642e-02,1.563e-01
9.724e-02,1.500e-01
9.806e-02,1.441e-01
9.888e-02,1.384e-01
9.970e-02,1.330e-01
1.005e-01,1.278e-01
1.013e-01,1.228e-01
1.022e-01,1.180e-01
1.030e-01,1.135e-01
1.038e-01,1.091e-01
1.046e-01,1.049e-01
1.054e-01,1.009e-01
1.063e-01,9.712e-02
1.071e-01,9.346e-02
1.079e-01,8.995e-02
1.087e-01,8.659e-02
1.096e-01,8.336e-02
1.104e-01,8.027e-02
1.112e-01,7.731e-02
1.120e-01,7.447e-02
1.128e-01,7.175e-02
1.137e-01,6.913e-02
1.145e-01,6.662e-02
1.153e-01,6.422e-02
1.161e-01,6.191e-02
1.169e-01,5.969e-02
1.178e-01,5.756e-02
1.186e-01,5.552e-02
1.194e-01,5.355e-02
1.202e-01,5.166e-02
1.210e-01,4.985e-02
1.219e-01,4.811e-02
1.227e-01,4.643e-02
1.235e-01,4.482e-02
1.243e-01,4.328e-02
1.251e-01,4.179e-02
1.260e-01,4.036e-02
1.268e-01,3.898e-02
1.276e-01,3.765e-02
1.284e-01,3.638e-02
1.292e-01,3.515e-02
1.301e-01,3.397e-02
1.309e-01,3.283e-02
1.317e-01,3.174e-02
1.325e-01,3.068e-02
1.333e-01,2.967e-02
1.342e-01,2.869e-02
1.350e-01,2.775e-02
1.358e-01,2.684e-02
1.366e-01,2.597e-02
1.375e-01,2.512e-02
1.383e-01,2.431e-02
1.391e-01,2.353e-02
1.399e-01,2.277e-02
1.407e-01,2.204e-02
1.416e-01,2.134e-02
1.424e-01,2.066e-02
1.432e-01,2.001e-02
1.440e-01,1.937e-02
1.448e-01,1.876e-02
1.457e-01,1.818e-02
1.465e-01,1.761e-02
1.473e-01,1.706e-02
1.481e-01,1.653e-02
1.489e-01,1.602e-02
1.498e-01,1.553e-02
1.506e-01,1.505e-02
1.514e-01,1.459e-02
1.522e-01,1.415e-02
1.530e-01,1.372e-02
1.539e-01,1.330e-02
1.547e-01,1.290e-02
1.555e-01,1.251e-02
1.563e-01,1.214e-02
1.571e-01,1.178e-02
1.580e-01,1.142e-02
1.588e-01,1.109e-02
1.596e-01,1.076e-02
1.604e-01,1.044e-02
1.612e-01,1.013e-02
1.621e-01,9.837e-03
1.629e-01,9.550e-03
1.637e-01,9.272e-03
