transmittance,probability_density
4.868e-04,1.102e+00
1.460e-03,8.839e+00
2.434e-03,2.024e+01
3.407e-03,3.134e+01
4.381e-03,4.011e+01
5.354e-03,4.607e+01
6.328e-03,4.950e+01
7.301e-03,5.089e+01
8.275e-03,5.077e+01
9.248e-03,4.959e+01
1.022e-02,4.769e+01
1.120e-02,4.535e+01
1.217e-02,4.276e+01
1.314e-02,4.006e+01
1.412e-02,3.735e+01
1.509e-02,3.470e+01
1.606e-02,3.215e+01
1.704e-02,2.972e+01
1.801e-02,2.744e+01
1.898e-02,2.530e+01
1.996e-02,2.332e+01
2.093e-02,2.148e+01
2.190e-02,1.978e+01
2.288e-02,1.821e+01
2.385e-02,1.677e+01
2.482e-02,1.545e+01
2.580e-02,1.424e+01
2.677e-02,1.312e+01
2.774e-02,1.210e+01
2.872e-02,1.116e+01
2.969e-02,1.030e+01
3.067e-02,9.514e+00
3.164e-02,8.791e+00
3.261e-02,8.128e+00
3.359e-02,7.520e+00
3.456e-02,6.961e+00
3.553e-02,6.448e+00
3.651e-02,5.977e+00
3.748e-02,5.543e+00
3.845e-02,5.145e+00
3.943e-02,4.778e+00
4.040e-02,4.439e+00
4.137e-02,4.128e+00
4.235e-02,3.841e+00
4.332e-02,3.575e+00
4.429e-02,3.331e+00
4.527e-02,3.104e+00
4.624e-02,2.895e+00
4.721e-02,2.702e+00
4.819e-02,2.523e+00
4.916e-02,2.357e+00
5.014e-02,2.204e+00
5.111e-02,2.061e+00
5.208e-02,1.929e+00
5.306e-02,1.806e+00
5.403e-02,1.692e+00
5.500e-02,1.586e+00
5.598e-02,1.488e+00
5.695e-02,1.396e+00
5.792e-02,1.310e+00
5.890e-02,1.231e+00
5.987e-02,1.157e+00
6.084e-02,1.087e+00
6.182e-02,1.023e+00
6.279e-02,9.626e-01
6.376e-02,9.063e-01
6.474e-02,8.537e-01
6.571e-02,8.045e-01
6.668e-02,7.584e-01
6.766e-02,7.153e-01
6.863e-02,6.750e-01
6.961e-02,6.372e-01
7.058e-02,6.017e-01
7.155e-02,5.685e-01
7.253e-02,5.373e-01
7.350e-02,5.080e-01
7.447e-02,4.805e-01
7.545e-02,4.547e-01
7.642e-02,4.304e-01
7.739e-02,4.075e-01
7.837e-02,3.861e-01
7.934e-02,3.659e-01
8.031e-02,3.468e-01
8.129e-02,3.289e-01
8.226e-02,3.120e-01
8.323e-02,2.961e-01
8.421e-02,2.811e-01
8.518e-02,2.669e-01
8.615e-02,2.535e-01
8.713e-02,2.409e-01
8.810e-02,2.290e-01
8.908e-02,2.177e-01
9.005e-02,2.071e-01
9.102e-02,1.970e-01
9.200e-02,1.875e-01
9.297e-02,1.785e-01
9.394e-02,1.700e-01
9.492e-02,1.619e-01
9.589e-02,1.543e-01
9.686e-02,1.470e-01
9.784e-02,1.402e-01
9.881e-02,1.337e-01
9.978e-02,1.275e-01
1.008e-01,1.216e-01
1.017e-01,1.161e-01
1.027e-01,1.108e-01
1.037e-01,1.058e-01
1.047e-01,1.011e-01
1.056e-01,9.655e-02
1.066e-01,9.226e-02
1.076e-01,8.819e-02
1.085e-01,8.431e-02
1.095e-01,8.062e-02
1.105e-01,7.712e-02
1.115e-01,7.378e-02
1.124e-01,7.060e-02
1.134e-01,6.758e-02
1.144e-01,6.470e-02
1.154e-01,6.196e-02
1.163e-01,5.934e-02
1.173e-01,5.685e-02
1.183e-01,5.448e-02
1.193e-01,5.221e-02
1.202e-01,5.005e-02
1.212e-01,4.799e-02
1.222e-01,4.603e-02
1.231e-01,4.415e-02
1.241e-01,4.236e-02
1.251e-01,4.065e-02
1.261e-01,3.902e-02
1.270e-01,3.746e-02
1.280e-01,3.596e-02
1.290e-01,3.454e-02
1.300e-01,3.318e-02
1.309e-01,3.187e-02
1.319e-01,3.063e-02
1.329e-01,2.944e-02
1.339e-01,2.829e-02
1.348e-01,2.720e-02
1.358e-01,2.616e-02
1.368e-01,2.516e-02
1.378e-01,2.420e-02
1.387e-01,2.328e-02
1.397e-01,2.241e-02
1.407e-01,2.156e-02
1.416e-01,2.076e-02
1.426e-01,1.998e-02
1.436e-01,1.924e-02
1.446e-01,1.853e-02
1.455e-01,1.785e-02
1.465e-01,1.720e-02
1.475e-01,1.657e-02
1.485e-01,1.597e-02
1.494e-01,1.539e-02
1.504e-01,1.484e-02
1.514e-01,1.430e-02
1.524e-01,1.379e-02
1.533e-01,1.330e-02
1.543e-01,1.283e-02
1.553e-01,1.238e-02
1.562e-01,1.194e-02
1.572e-01,1.152e-02
1.582e-01,1.112e-02
1.592e-01,1.074e-02
1.601e-01,1.036e-02
1.611e-01,1.001e-02
1.621e-01,9.663e-03
1.631e-01,9.332e-03
1.640e-01,9.014e-03
1.650e-01,8.708e-03
1.660e-01,8.413e-03
1.670e-01,8.130e-03
1.679e-01,7.857e-03
1.689e-01,7.594e-03
1.699e-01,7.341e-03
1.708e-01,7.097e-03
1.718e-01,6.862e-03
1.728e-01,6.636e-03
1.738e-01,6.418e-03
1.747e-01,6.208e-03
1.757e-01,6.006e-03
1.767e-01,5.811e-03
1.777e-01,5.623e-03
1.786e-01,5.441e-03
1.796e-01,5.266e-03
1.806e-01,5.098e-03
1.816e-01,4.935e-03
1.825e-01,4.778e-03
1.835e-01,4.627e-03
1.845e-01,4.481e-03
1.855e-01,4.340e-03
1.864e-01,4.203e-03
1.874e-01,4.072e-03
1.884e-01,3.945e-03
1.893e-01,3.823e-03
1.903e-01,3.704e-03
1.913e-01,3.590e-03
1.923e-01,3.480e-03
1.932e-01,3.373e-03
1.942e-01,3.270e-03
