transmittance,probability_density
2.912e-04,2.508e+00
8.737e-04,1.926e+01
1.456e-03,4.256e+01
2.039e-03,6.320e+01
2.621e-03,7.794e+01
3.203e-03,8.677e+01
3.786e-03,9.079e+01
4.368e-03,9.127e+01
4.951e-03,8.930e+01
5.533e-03,8.575e+01
6.116e-03,8.125e+01
6.698e-03,7.624e+01
7.281e-03,7.104e+01
7.863e-03,6.585e+01
8.446e-03,6.081e+01
9.028e-03,5.600e+01
9.610e-03,5.147e+01
1.019e-02,4.725e+01
1.078e-02,4.333e+01
1.136e-02,3.971e+01
1.194e-02,3.638e+01
1.252e-02,3.333e+01
1.311e-02,3.055e+01
1.369e-02,2.800e+01
1.427e-02,2.567e+01
1.485e-02,2.355e+01
1.543e-02,2.162e+01
1.602e-02,1.986e+01
1.660e-02,1.825e+01
1.718e-02,1.678e+01
1.776e-02,1.544e+01
1.835e-02,1.422e+01
1.893e-02,1.311e+01
1.951e-02,1.209e+01
2.009e-02,1.116e+01
2.068e-02,1.031e+01
2.126e-02,9.527e+00
2.184e-02,8.812e+00
2.242e-02,8.158e+00
2.301e-02,7.557e+00
2.359e-02,7.006e+00
2.417e-02,6.499e+00
2.475e-02,6.034e+00
2.534e-02,5.606e+00
2.592e-02,5.211e+00
2.650e-02,4.848e+00
2.708e-02,4.513e+00
2.767e-02,4.204e+00
2.825e-02,3.919e+00
2.883e-02,3.655e+00
2.941e-02,3.411e+00
3.000e-02,3.186e+00
3.058e-02,2.977e+00
3.116e-02,2.783e+00
3.174e-02,2.604e+00
3.233e-02,2.437e+00
3.291e-02,2.283e+00
3.349e-02,2.139e+00
3.407e-02,2.006e+00
3.466e-02,1.882e+00
3.524e-02,1.766e+00
3.582e-02,1.659e+00
3.640e-02,1.559e+00
3.699e-02,1.465e+00
3.757e-02,1.378e+00
3.815e-02,1.297e+00
3.873e-02,1.221e+00
3.932e-02,1.150e+00
3.990e-02,1.084e+00
4.048e-02,1.022e+00
4.106e-02,9.638e-01
4.165e-02,9.095e-01
4.223e-02,8.586e-01
4.281e-02,8.109e-01
4.339e-02,7.661e-01
4.397e-02,7.242e-01
4.456e-02,6.848e-01
4.514e-02,6.478e-01
4.572e-02,6.130e-01
4.630e-02,5.804e-01
4.689e-02,5.496e-01
4.747e-02,5.208e-01
4.805e-02,4.936e-01
4.863e-02,4.680e-01
4.922e-02,4.439e-01
4.980e-02,4.211e-01
5.038e-02,3.997e-01
5.096e-02,3.795e-01
5.155e-02,3.605e-01
5.213e-02,3.425e-01
5.271e-02,3.255e-01
5.329e-02,3.095e-01
5.388e-02,2.943e-01
5.446e-02,2.800e-01
5.504e-02,2.664e-01
5.562e-02,2.536e-01
5.621e-02,2.415e-01
5.679e-02,2.300e-01
5.737e-02,2.192e-01
5.795e-02,2.089e-01
5.854e-02,1.991e-01
5.912e-02,1.899e-01
5.970e-02,1.811e-01
6.028e-02,1.728e-01
6.087e-02,1.649e-01
6.145e-02,1.575e-01
6.203e-02,1.504e-01
6.261e-02,1.436e-01
6.320e-02,1.372e-01
6.378e-02,1.311e-01
6.436e-02,1.253e-01
6.494e-02,1.198e-01
6.553e-02,1.146e-01
6.611e-02,1.096e-01
6.669e-02,1.049e-01
6.727e-02,1.004e-01
6.786e-02,9.609e-02
6.844e-02,9.201e-02
6.902e-02,8.812e-02
6.960e-02,8.441e-02
7.019e-02,8.087e-02
7.077e-02,7.750e-02
7.135e-02,7.429e-02
7.193e-02,7.123e-02
7.252e-02,6.830e-02
7.310e-02,6.551e-02
7.368e-02,6.285e-02
7.426e-02,6.031e-02
7.484e-02,5.788e-02
7.543e-02,5.557e-02
7.601e-02,5.335e-02
7.659e-02,5.123e-02
7.717e-02,4.921e-02
7.776e-02,4.728e-02
7.834e-02,4.543e-02
7.892e-02,4.366e-02
7.950e-02,4.197e-02
8.009e-02,4.035e-02
8.067e-02,3.880e-02
8.125e-02,3.731e-02
8.183e-02,3.589e-02
8.242e-02,3.453e-02
8.300e-02,3.323e-02
8.358e-02,3.198e-02
8.416e-02,3.079e-02
8.475e-02,2.964e-02
8.533e-02,2.854e-02
8.591e-02,2.749e-02
8.649e-02,2.648e-02
8.708e-02,2.551e-02
8.766e-02,2.458e-02
8.824e-02,2.369e-02
8.882e-02,2.283e-02
8.941e-02,2.201e-02
8.999e-02,2.122e-02
9.057e-02,2.047e-02
9.115e-02,1.974e-02
9.174e-02,1.904e-02
9.232e-02,1.837e-02
9.290e-02,1.773e-02
9.348e-02,1.711e-02
9.407e-02,1.651e-02
9.465e-02,1.594e-02
9.523e-02,1.539e-02
9.581e-02,1.486e-02
9.640e-02,1.435e-02
9.698e-02,1.386e-02
9.756e-02,1.339e-02
9.814e-02,1.294e-02
9.873e-02,1.250e-02
9.931e-02,1.208e-02
9.989e-02,1.168e-02
1.005e-01,1.129e-02
1.011e-01,1.091e-02
1.016e-01,1.055e-02
1.022e-01,1.020e-02
1.028e-01,9.867e-03
1.034e-01,9.544e-03
1.040e-01,9.233e-03
1.045e-01,8.933e-03
1.051e-01,8.644e-03
1.057e-01,8.366e-03
1.063e-01,8.097e-03
1.069e-01,7.838e-03
1.075e-01,7.588e-03
1.080e-01,7.346e-03
1.086e-01,7.114e-03
1.092e-01,6.889e-03
1.098e-01,6.673e-03
1.104e-01,6.464e-03
1.110e-01,6.262e-03
1.115e-01,6.067e-03
1.121e-01,5.879e-03
1.127e-01,5.697e-03
1.133e-01,5.522e-03
1.139e-01,5.352e-03
1.145e-01,5.189e-03
1.150e-01,5.030e-03
1.156e-01,4.878e-03
1.162e-01,4.730e-03
