transmittance,probability_density
2.032e-03,2.913e-03
6.095e-03,3.043e-02
1.016e-02,1.033e-01
1.422e-02,2.223e-01
1.829e-02,3.862e-01
2.235e-02,5.955e-01
2.641e-02,8.488e-01
3.048e-02,1.142e+00
3.454e-02,1.469e+00
3.860e-02,1.820e+00
4.267e-02,2.187e+00
4.673e-02,2.561e+00
5.079e-02,2.931e+00
5.486e-02,3.290e+00
5.892e-02,3.631e+00
6.298e-02,3.949e+00
6.705e-02,4.240e+00
7.111e-02,4.500e+00
7.517e-02,4.727e+00
7.924e-02,4.922e+00
8.330e-02,5.085e+00
8.736e-02,5.215e+00
9.143e-02,5.315e+00
9.549e-02,5.385e+00
9.955e-02,5.428e+00
1.036e-01,5.447e+00
1.077e-01,5.442e+00
1.117e-01,5.417e+00
1.158e-01,5.373e+00
1.199e-01,5.313e+00
1.239e-01,5.238e+00
1.280e-01,5.152e+00
1.321e-01,5.054e+00
1.361e-01,4.948e+00
1.402e-01,4.834e+00
1.443e-01,4.714e+00
1.483e-01,4.590e+00
1.524e-01,4.462e+00
1.564e-01,4.331e+00
1.605e-01,4.199e+00
1.646e-01,4.066e+00
1.686e-01,3.933e+00
1.727e-01,3.801e+00
1.768e-01,3.669e+00
1.808e-01,3.539e+00
1.849e-01,3.411e+00
1.889e-01,3.286e+00
1.930e-01,3.162e+00
1.971e-01,3.042e+00
2.011e-01,2.924e+00
2.052e-01,2.810e+00
2.093e-01,2.699e+00
2.133e-01,2.591e+00
2.174e-01,2.486e+00
2.215e-01,2.385e+00
2.255e-01,2.287e+00
2.296e-01,2.192e+00
2.336e-01,2.101e+00
2.377e-01,2.013e+00
2.418e-01,1.928e+00
2.458e-01,1.846e+00
2.499e-01,1.768e+00
2.540e-01,1.693e+00
2.580e-01,1.620e+00
2.621e-01,1.550e+00
2.662e-01,1.484e+00
2.702e-01,1.420e+00
2.743e-01,1.358e+00
2.783e-01,1.299e+00
2.824e-01,1.243e+00
2.865e-01,1.189e+00
2.905e-01,1.137e+00
2.946e-01,1.088e+00
2.987e-01,1.040e+00
3.027e-01,9.949e-01
3.068e-01,9.515e-01
3.109e-01,9.100e-01
3.149e-01,8.704e-01
3.190e-01,8.324e-01
3.230e-01,7.961e-01
3.271e-01,7.614e-01
3.312e-01,7.283e-01
3.352e-01,6.966e-01
3.393e-01,6.663e-01
3.434e-01,6.373e-01
3.474e-01,6.097e-01
3.515e-01,5.832e-01
3.555e-01,5.580e-01
3.596e-01,5.339e-01
3.637e-01,5.108e-01
3.677e-01,4.888e-01
3.718e-01,4.677e-01
3.759e-01,4.476e-01
3.799e-01,4.284e-01
3.840e-01,4.100e-01
3.881e-01,3.925e-01
3.921e-01,3.757e-01
3.962e-01,3.597e-01
4.002e-01,3.444e-01
4.043e-01,3.298e-01
4.084e-01,3.158e-01
4.124e-01,3.024e-01
4.165e-01,2.896e-01
4.206e-01,2.774e-01
4.246e-01,2.658e-01
4.287e-01,2.546e-01
4.328e-01,2.439e-01
4.368e-01,2.338e-01
4.409e-01,2.240e-01
4.449e-01,2.147e-01
4.490e-01,2.058e-01
4.531e-01,1.972e-01
4.571e-01,1.891e-01
4.612e-01,1.813e-01
4.653e-01,1.738e-01
4.693e-01,1.667e-01
4.734e-01,1.599e-01
4.774e-01,1.534e-01
4.815e-01,1.471e-01
4.856e-01,1.411e-01
4.896e-01,1.354e-01
4.937e-01,1.299e-01
4.978e-01,1.247e-01
5.018e-01,1.197e-01
5.059e-01,1.149e-01
5.100e-01,1.103e-01
5.140e-01,1.058e-01
5.181e-01,1.016e-01
5.221e-01,9.758e-02
5.262e-01,9.371e-02
5.303e-01,9.000e-02
5.343e-01,8.645e-02
5.384e-01,8.305e-02
5.425e-01,7.978e-02
5.465e-01,7.666e-02
5.506e-01,7.366e-02
5.547e-01,7.079e-02
5.587e-01,6.804e-02
5.628e-01,6.540e-02
5.668e-01,6.287e-02
5.709e-01,6.044e-02
5.750e-01,5.812e-02
5.790e-01,5.588e-02
5.831e-01,5.374e-02
5.872e-01,5.169e-02
5.912e-01,4.972e-02
5.953e-01,4.783e-02
5.994e-01,4.602e-02
6.034e-01,4.428e-02
6.075e-01,4.261e-02
6.115e-01,4.100e-02
6.156e-01,3.946e-02
6.197e-01,3.798e-02
6.237e-01,3.657e-02
6.278e-01,3.520e-02
6.319e-01,3.390e-02
6.359e-01,3.264e-02
6.400e-01,3.143e-02
6.440e-01,3.027e-02
6.481e-01,2.916e-02
6.522e-01,2.809e-02
6.562e-01,2.706e-02
6.603e-01,2.607e-02
6.644e-01,2.512e-02
6.684e-01,2.421e-02
6.725e-01,2.333e-02
6.766e-01,2.249e-02
6.806e-01,2.168e-02
6.847e-01,2.090e-02
6.887e-01,2.015e-02
6.928e-01,1.943e-02
6.969e-01,1.873e-02
7.009e-01,1.807e-02
7.050e-01,1.742e-02
7.091e-01,1.681e-02
7.131e-01,1.621e-02
7.172e-01,1.564e-02
7.213e-01,1.509e-02
7.253e-01,1.456e-02
7.294e-01,1.405e-02
7.334e-01,1.356e-02
7.375e-01,1.309e-02
7.416e-01,1.263e-02
7.456e-01,1.219e-02
7.497e-01,1.177e-02
7.538e-01,1.136e-02
7.578e-01,1.097e-02
7.619e-01,1.060e-02
7.660e-01,1.023e-02
7.700e-01,9.883e-03
7.741e-01,9.546e-03
7.781e-01,9.221e-03
7.822e-01,8.908e-03
7.863e-01,8.607e-03
7.903e-01,8.316e-03
7.944e-01,8.036e-03
7.985e-01,7.765e-03
8.025e-01,7.505e-03
8.066e-01,7.254e-03
8.106e-01,7.011e-03
