transmittance,probability_density
2.245e-03,1.511e-04
6.734e-03,4.928e-03
1.122e-02,1.687e-02
1.571e-02,4.039e-02
2.020e-02,7.566e-02
2.469e-02,1.234e-01
2.918e-02,1.848e-01
3.367e-02,2.604e-01
3.816e-02,3.507e-01
4.265e-02,4.555e-01
4.714e-02,5.746e-01
5.163e-02,7.074e-01
5.612e-02,8.529e-01
6.061e-02,1.010e+00
6.510e-02,1.177e+00
6.959e-02,1.352e+00
7.408e-02,1.533e+00
7.857e-02,1.719e+00
8.306e-02,1.906e+00
8.755e-02,2.093e+00
9.204e-02,2.277e+00
9.653e-02,2.458e+00
1.010e-01,2.632e+00
1.055e-01,2.798e+00
1.100e-01,2.956e+00
1.145e-01,3.103e+00
1.190e-01,3.240e+00
1.235e-01,3.364e+00
1.280e-01,3.476e+00
1.324e-01,3.576e+00
1.369e-01,3.663e+00
1.414e-01,3.737e+00
1.459e-01,3.799e+00
1.504e-01,3.849e+00
1.549e-01,3.887e+00
1.594e-01,3.914e+00
1.639e-01,3.930e+00
1.684e-01,3.935e+00
1.729e-01,3.931e+00
1.773e-01,3.918e+00
1.818e-01,3.897e+00
1.863e-01,3.867e+00
1.908e-01,3.831e+00
1.953e-01,3.789e+00
1.998e-01,3.741e+00
2.043e-01,3.687e+00
2.088e-01,3.629e+00
2.133e-01,3.567e+00
2.177e-01,3.501e+00
2.222e-01,3.433e+00
2.267e-01,3.361e+00
2.312e-01,3.288e+00
2.357e-01,3.213e+00
2.402e-01,3.136e+00
2.447e-01,3.059e+00
2.492e-01,2.981e+00
2.537e-01,2.902e+00
2.582e-01,2.824e+00
2.626e-01,2.745e+00
2.671e-01,2.667e+00
2.716e-01,2.589e+00
2.761e-01,2.512e+00
2.806e-01,2.436e+00
2.851e-01,2.361e+00
2.896e-01,2.287e+00
2.941e-01,2.214e+00
2.986e-01,2.143e+00
3.031e-01,2.073e+00
3.075e-01,2.004e+00
3.120e-01,1.937e+00
3.165e-01,1.872e+00
3.210e-01,1.808e+00
3.255e-01,1.745e+00
3.300e-01,1.685e+00
3.345e-01,1.625e+00
3.390e-01,1.568e+00
3.435e-01,1.512e+00
3.479e-01,1.458e+00
3.524e-01,1.405e+00
3.569e-01,1.354e+00
3.614e-01,1.305e+00
3.659e-01,1.257e+00
3.704e-01,1.211e+00
3.749e-01,1.166e+00
3.794e-01,1.122e+00
3.839e-01,1.080e+00
3.884e-01,1.040e+00
3.928e-01,1.001e+00
3.973e-01,9.630e-01
4.018e-01,9.266e-01
4.063e-01,8.914e-01
4.108e-01,8.575e-01
4.153e-01,8.247e-01
4.198e-01,7.932e-01
4.243e-01,7.628e-01
4.288e-01,7.335e-01
4.333e-01,7.053e-01
4.377e-01,6.781e-01
4.422e-01,6.520e-01
4.467e-01,6.268e-01
4.512e-01,6.026e-01
4.557e-01,5.792e-01
4.602e-01,5.568e-01
4.647e-01,5.352e-01
4.692e-01,5.144e-01
4.737e-01,4.945e-01
4.781e-01,4.752e-01
4.826e-01,4.568e-01
4.871e-01,4.390e-01
4.916e-01,4.219e-01
4.961e-01,4.055e-01
5.006e-01,3.897e-01
5.051e-01,3.746e-01
5.096e-01,3.600e-01
5.141e-01,3.460e-01
5.186e-01,3.325e-01
5.230e-01,3.196e-01
5.275e-01,3.072e-01
5.320e-01,2.953e-01
5.365e-01,2.838e-01
5.410e-01,2.728e-01
5.455e-01,2.622e-01
5.500e-01,2.520e-01
5.545e-01,2.423e-01
5.590e-01,2.329e-01
5.635e-01,2.239e-01
5.679e-01,2.152e-01
5.724e-01,2.069e-01
5.769e-01,1.989e-01
5.814e-01,1.912e-01
5.859e-01,1.838e-01
5.904e-01,1.768e-01
5.949e-01,1.700e-01
5.994e-01,1.634e-01
6.039e-01,1.572e-01
6.083e-01,1.511e-01
6.128e-01,1.453e-01
6.173e-01,1.398e-01
6.218e-01,1.344e-01
6.263e-01,1.293e-01
6.308e-01,1.244e-01
6.353e-01,1.196e-01
6.398e-01,1.151e-01
6.443e-01,1.107e-01
6.488e-01,1.065e-01
6.532e-01,1.025e-01
6.577e-01,9.859e-02
6.622e-01,9.487e-02
6.667e-01,9.129e-02
6.712e-01,8.785e-02
6.757e-01,8.454e-02
6.802e-01,8.136e-02
6.847e-01,7.831e-02
6.892e-01,7.537e-02
6.937e-01,7.255e-02
6.981e-01,6.984e-02
7.026e-01,6.723e-02
7.071e-01,6.473e-02
7.116e-01,6.232e-02
7.161e-01,6.000e-02
7.206e-01,5.778e-02
7.251e-01,5.564e-02
7.296e-01,5.358e-02
7.341e-01,5.160e-02
7.385e-01,4.970e-02
7.430e-01,4.787e-02
7.475e-01,4.611e-02
7.520e-01,4.442e-02
7.565e-01,4.279e-02
7.610e-01,4.123e-02
7.655e-01,3.972e-02
7.700e-01,3.827e-02
7.745e-01,3.688e-02
7.790e-01,3.554e-02
7.834e-01,3.425e-02
7.879e-01,3.301e-02
7.924e-01,3.181e-02
7.969e-01,3.067e-02
8.014e-01,2.956e-02
8.059e-01,2.850e-02
8.104e-01,2.747e-02
8.149e-01,2.649e-02
8.194e-01,2.554e-02
8.239e-01,2.463e-02
8.283e-01,2.375e-02
8.328e-01,2.290e-02
8.373e-01,2.209e-02
8.418e-01,2.130e-02
8.463e-01,2.055e-02
8.508e-01,1.982e-02
8.553e-01,1.912e-02
8.598e-01,1.845e-02
8.643e-01,1.780e-02
8.687e-01,1.717e-02
8.732e-01,1.657e-02
8.777e-01,1.599e-02
8.822e-01,1.543e-02
8.867e-01,1.489e-02
8.912e-01,1.437e-02
8.957e-01,1.387e-02
