transmittance,probability_density
2.500e-03,2.662e-11
7.500e-03,1.607e-05
1.250e-02,4.865e-04
1.750e-02,2.341e-03
2.250e-02,5.786e-03
2.750e-02,1.057e-02
3.250e-02,1.671e-02
3.750e-02,2.452e-02
4.250e-02,3.429e-02
4.750e-02,4.618e-02
5.250e-02,6.033e-02
5.750e-02,7.681e-02
6.250e-02,9.577e-02
6.750e-02,1.174e-01
7.250e-02,1.418e-01
7.750e-02,1.693e-01
8.250e-02,2.000e-01
8.750e-02,2.341e-01
9.250e-02,2.719e-01
9.750e-02,3.134e-01
1.025e-01,3.588e-01
1.075e-01,4.082e-01
1.125e-01,4.616e-01
1.175e-01,5.191e-01
1.225e-01,5.805e-01
1.275e-01,6.457e-01
1.325e-01,7.147e-01
1.375e-01,7.873e-01
1.425e-01,8.632e-01
1.475e-01,9.422e-01
1.525e-01,1.024e+00
1.575e-01,1.108e+00
1.625e-01,1.194e+00
1.675e-01,1.282e+00
1.725e-01,1.371e+00
1.775e-01,1.460e+00
1.825e-01,1.550e+00
1.875e-01,1.640e+00
1.925e-01,1.729e+00
1.975e-01,1.816e+00
2.025e-01,1.902e+00
2.075e-01,1.987e+00
2.125e-01,2.068e+00
2.175e-01,2.147e+00
2.225e-01,2.223e+00
2.275e-01,2.296e+00
2.325e-01,2.364e+00
2.375e-01,2.429e+00
2.425e-01,2.489e+00
2.475e-01,2.545e+00
2.525e-01,2.597e+00
2.575e-01,2.643e+00
2.625e-01,2.685e+00
2.675e-01,2.723e+00
2.725e-01,2.755e+00
2.775e-01,2.783e+00
2.825e-01,2.806e+00
2.875e-01,2.824e+00
2.925e-01,2.837e+00
2.975e-01,2.846e+00
3.025e-01,2.851e+00
3.075e-01,2.852e+00
3.125e-01,2.848e+00
3.175e-01,2.840e+00
3.225e-01,2.829e+00
3.275e-01,2.814e+00
3.325e-01,2.796e+00
3.375e-01,2.774e+00
3.425e-01,2.749e+00
3.475e-01,2.722e+00
3.525e-01,2.692e+00
3.575e-01,2.660e+00
3.625e-01,2.625e+00
3.675e-01,2.588e+00
3.725e-01,2.550e+00
3.775e-01,2.509e+00
3.825e-01,2.468e+00
3.875e-01,2.425e+00
3.925e-01,2.380e+00
3.975e-01,2.335e+00
4.025e-01,2.289e+00
4.075e-01,2.242e+00
4.125e-01,2.195e+00
4.175e-01,2.147e+00
4.225e-01,2.098e+00
4.275e-01,2.050e+00
4.325e-01,2.002e+00
4.375e-01,1.953e+00
4.425e-01,1.905e+00
4.475e-01,1.856e+00
4.525e-01,1.808e+00
4.575e-01,1.761e+00
4.625e-01,1.713e+00
4.675e-01,1.666e+00
4.725e-01,1.620e+00
4.775e-01,1.574e+00
4.825e-01,1.529e+00
4.875e-01,1.485e+00
4.925e-01,1.441e+00
4.975e-01,1.398e+00
5.025e-01,1.356e+00
5.075e-01,1.315e+00
5.125e-01,1.274e+00
5.175e-01,1.234e+00
5.225e-01,1.195e+00
5.275e-01,1.157e+00
5.325e-01,1.120e+00
5.375e-01,1.084e+00
5.425e-01,1.048e+00
5.475e-01,1.014e+00
5.525e-01,9.801e-01
5.575e-01,9.473e-01
5.625e-01,9.153e-01
5.675e-01,8.842e-01
5.725e-01,8.540e-01
5.775e-01,8.246e-01
5.825e-01,7.960e-01
5.875e-01,7.683e-01
5.925e-01,7.414e-01
5.975e-01,7.153e-01
6.025e-01,6.899e-01
6.075e-01,6.654e-01
6.125e-01,6.416e-01
6.175e-01,6.185e-01
6.225e-01,5.962e-01
6.275e-01,5.746e-01
6.325e-01,5.537e-01
6.375e-01,5.334e-01
6.425e-01,5.139e-01
6.475e-01,4.949e-01
6.525e-01,4.766e-01
6.575e-01,4.590e-01
6.625e-01,4.419e-01
6.675e-01,4.254e-01
6.725e-01,4.095e-01
6.775e-01,3.941e-01
6.825e-01,3.793e-01
6.875e-01,3.650e-01
6.925e-01,3.512e-01
6.975e-01,3.378e-01
7.025e-01,3.250e-01
7.075e-01,3.126e-01
7.125e-01,3.007e-01
7.175e-01,2.892e-01
7.225e-01,2.781e-01
7.275e-01,2.674e-01
7.325e-01,2.571e-01
7.375e-01,2.472e-01
7.425e-01,2.377e-01
7.475e-01,2.285e-01
7.525e-01,2.196e-01
7.575e-01,2.111e-01
7.625e-01,2.029e-01
7.675e-01,1.950e-01
7.725e-01,1.874e-01
7.775e-01,1.801e-01
7.825e-01,1.731e-01
7.875e-01,1.663e-01
7.925e-01,1.598e-01
7.975e-01,1.536e-01
8.025e-01,1.475e-01
8.075e-01,1.418e-01
8.125e-01,1.362e-01
8.175e-01,1.308e-01
8.225e-01,1.257e-01
8.275e-01,1.208e-01
8.325e-01,1.160e-01
8.375e-01,1.114e-01
8.425e-01,1.071e-01
8.475e-01,1.028e-01
8.525e-01,9.878e-02
8.575e-01,9.488e-02
8.625e-01,9.113e-02
8.675e-01,8.754e-02
8.725e-01,8.408e-02
8.775e-01,8.076e-02
8.825e-01,7.757e-02
8.875e-01,7.450e-02
8.925e-01,7.156e-02
8.975e-01,6.873e-02
9.025e-01,6.601e-02
9.075e-01,6.340e-02
9.125e-01,6.089e-02
9.175e-01,5.849e-02
9.225e-01,5.617e-02
9.275e-01,5.395e-02
9.325e-01,5.182e-02
9.375e-01,4.977e-02
9.425e-01,4.780e-02
9.475e-01,4.591e-02
9.525e-01,4.410e-02
9.575e-01,4.236e-02
9.625e-01,4.068e-02
9.675e-01,3.908e-02
9.725e-01,3.753e-02
9.775e-01,3.605e-02
9.825e-01,3.463e-02
9.875e-01,3.326e-02
9.925e-01,3.195e-02
9.975e-01,3.069e-02
