transmittance,probability_density
2.500e-03,2.163e-37
7.500e-03,4.834e-16
1.250e-02,9.306e-10
1.750e-02,7.001e-07
2.250e-02,2.184e-05
2.750e-02,1.352e-04
3.250e-02,3.321e-04
3.750e-02,4.739e-04
4.250e-02,5.262e-04
4.750e-02,6.098e-04
5.250e-02,8.514e-04
5.750e-02,1.295e-03
6.250e-02,1.919e-03
6.750e-02,2.678e-03
7.250e-02,3.542e-03
7.750e-02,4.500e-03
8.250e-02,5.567e-03
8.750e-02,6.771e-03
9.250e-02,8.150e-03
9.750e-02,9.741e-03
1.025e-01,1.158e-02
1.075e-01,1.368e-02
1.125e-01,1.608e-02
1.175e-01,1.879e-02
1.225e-01,2.184e-02
1.275e-01,2.524e-02
1.325e-01,2.902e-02
1.375e-01,3.321e-02
1.425e-01,3.783e-02
1.475e-01,4.291e-02
1.525e-01,4.847e-02
1.575e-01,5.453e-02
1.625e-01,6.110e-02
1.675e-01,6.821e-02
1.725e-01,7.588e-02
1.775e-01,8.412e-02
1.825e-01,9.294e-02
1.875e-01,1.024e-01
1.925e-01,1.124e-01
1.975e-01,1.232e-01
2.025e-01,1.346e-01
2.075e-01,1.467e-01
2.125e-01,1.595e-01
2.175e-01,1.732e-01
2.225e-01,1.877e-01
2.275e-01,2.030e-01
2.325e-01,2.192e-01
2.375e-01,2.363e-01
2.425e-01,2.545e-01
2.475e-01,2.736e-01
2.525e-01,2.938e-01
2.575e-01,3.151e-01
2.625e-01,3.376e-01
2.675e-01,3.612e-01
2.725e-01,3.860e-01
2.775e-01,4.121e-01
2.825e-01,4.394e-01
2.875e-01,4.681e-01
2.925e-01,4.980e-01
2.975e-01,5.294e-01
3.025e-01,5.621e-01
3.075e-01,5.962e-01
3.125e-01,6.317e-01
3.175e-01,6.687e-01
3.225e-01,7.070e-01
3.275e-01,7.468e-01
3.325e-01,7.880e-01
3.375e-01,8.305e-01
3.425e-01,8.744e-01
3.475e-01,9.197e-01
3.525e-01,9.662e-01
3.575e-01,1.014e+00
3.625e-01,1.063e+00
3.675e-01,1.113e+00
3.725e-01,1.164e+00
3.775e-01,1.216e+00
3.825e-01,1.268e+00
3.875e-01,1.322e+00
3.925e-01,1.376e+00
3.975e-01,1.430e+00
4.025e-01,1.485e+00
4.075e-01,1.540e+00
4.125e-01,1.595e+00
4.175e-01,1.649e+00
4.225e-01,1.704e+00
4.275e-01,1.758e+00
4.325e-01,1.811e+00
4.375e-01,1.864e+00
4.425e-01,1.916e+00
4.475e-01,1.966e+00
4.525e-01,2.015e+00
4.575e-01,2.063e+00
4.625e-01,2.110e+00
4.675e-01,2.154e+00
4.725e-01,2.197e+00
4.775e-01,2.237e+00
4.825e-01,2.276e+00
4.875e-01,2.312e+00
4.925e-01,2.346e+00
4.975e-01,2.377e+00
5.025e-01,2.406e+00
5.075e-01,2.432e+00
5.125e-01,2.456e+00
5.175e-01,2.477e+00
5.225e-01,2.495e+00
5.275e-01,2.510e+00
5.325e-01,2.522e+00
5.375e-01,2.531e+00
5.425e-01,2.538e+00
5.475e-01,2.542e+00
5.525e-01,2.543e+00
5.575e-01,2.541e+00
5.625e-01,2.537e+00
5.675e-01,2.529e+00
5.725e-01,2.520e+00
5.775e-01,2.507e+00
5.825e-01,2.492e+00
5.875e-01,2.475e+00
5.925e-01,2.456e+00
5.975e-01,2.434e+00
6.025e-01,2.410e+00
6.075e-01,2.384e+00
6.125e-01,2.357e+00
6.175e-01,2.327e+00
6.225e-01,2.296e+00
6.275e-01,2.263e+00
6.325e-01,2.229e+00
6.375e-01,2.193e+00
6.425e-01,2.156e+00
6.475e-01,2.118e+00
6.525e-01,2.079e+00
6.575e-01,2.040e+00
6.625e-01,1.999e+00
6.675e-01,1.958e+00
6.725e-01,1.916e+00
6.775e-01,1.873e+00
6.825e-01,1.830e+00
6.875e-01,1.787e+00
6.925e-01,1.744e+00
6.975e-01,1.701e+00
7.025e-01,1.657e+00
7.075e-01,1.614e+00
7.125e-01,1.570e+00
7.175e-01,1.527e+00
7.225e-01,1.484e+00
7.275e-01,1.442e+00
7.325e-01,1.400e+00
7.375e-01,1.358e+00
7.425e-01,1.317e+00
7.475e-01,1.276e+00
7.525e-01,1.236e+00
7.575e-01,1.196e+00
7.625e-01,1.157e+00
7.675e-01,1.119e+00
7.725e-01,1.081e+00
7.775e-01,1.044e+00
7.825e-01,1.008e+00
7.875e-01,9.730e-01
7.925e-01,9.384e-01
7.975e-01,9.047e-01
8.025e-01,8.717e-01
8.075e-01,8.396e-01
8.125e-01,8.082e-01
8.175e-01,7.777e-01
8.225e-01,7.481e-01
8.275e-01,7.192e-01
8.325e-01,6.912e-01
8.375e-01,6.640e-01
8.425e-01,6.376e-01
8.475e-01,6.120e-01
8.525e-01,5.872e-01
8.575e-01,5.632e-01
8.625e-01,5.400e-01
8.675e-01,5.176e-01
8.725e-01,4.959e-01
8.775e-01,4.749e-01
8.825e-01,4.547e-01
8.875e-01,4.351e-01
8.925e-01,4.163e-01
8.975e-01,3.982e-01
9.025e-01,3.807e-01
9.075e-01,3.639e-01
9.125e-01,3.477e-01
9.175e-01,3.322e-01
9.225e-01,3.172e-01
9.275e-01,3.028e-01
9.325e-01,2.890e-01
9.375e-01,2.757e-01
9.425e-01,2.630e-01
9.475e-01,2.508e-01
9.525e-01,2.391e-01
9.575e-01,2.279e-01
9.625e-01,2.171e-01
9.675e-01,2.069e-01
9.725e-01,1.970e-01
9.775e-01,1.876e-01
9.825e-01,1.785e-01
9.875e-01,1.699e-01
9.925e-01,1.617e-01
9.975e-01,1.538e-01
