transmittance,probability_density
2.500e-03,4.146e-18
7.500e-03,1.711e-07
1.250e-02,7.299e-05
1.750e-02,6.534e-04
2.250e-02,1.425e-03
2.750e-02,1.755e-03
3.250e-02,1.828e-03
3.750e-02,1.990e-03
4.250e-02,2.439e-03
4.750e-02,3.290e-03
5.250e-02,4.612e-03
5.750e-02,6.436e-03
6.250e-02,8.759e-03
6.750e-02,1.156e-02
7.250e-02,1.484e-02
7.750e-02,1.859e-02
8.250e-02,2.285e-02
8.750e-02,2.766e-02
9.250e-02,3.310e-02
9.750e-02,3.921e-02
1.025e-01,4.606e-02
1.075e-01,5.372e-02
1.125e-01,6.224e-02
1.175e-01,7.168e-02
1.225e-01,8.208e-02
1.275e-01,9.352e-02
1.325e-01,1.060e-01
1.375e-01,1.197e-01
1.425e-01,1.346e-01
1.475e-01,1.507e-01
1.525e-01,1.682e-01
1.575e-01,1.872e-01
1.625e-01,2.076e-01
1.675e-01,2.297e-01
1.725e-01,2.534e-01
1.775e-01,2.788e-01
1.825e-01,3.060e-01
1.875e-01,3.352e-01
1.925e-01,3.663e-01
1.975e-01,3.993e-01
2.025e-01,4.345e-01
2.075e-01,4.717e-01
2.125e-01,5.110e-01
2.175e-01,5.525e-01
2.225e-01,5.961e-01
2.275e-01,6.418e-01
2.325e-01,6.896e-01
2.375e-01,7.394e-01
2.425e-01,7.912e-01
2.475e-01,8.449e-01
2.525e-01,9.004e-01
2.575e-01,9.576e-01
2.625e-01,1.016e+00
2.675e-01,1.077e+00
2.725e-01,1.138e+00
2.775e-01,1.201e+00
2.825e-01,1.264e+00
2.875e-01,1.328e+00
2.925e-01,1.393e+00
2.975e-01,1.458e+00
3.025e-01,1.523e+00
3.075e-01,1.588e+00
3.125e-01,1.652e+00
3.175e-01,1.716e+00
3.225e-01,1.779e+00
3.275e-01,1.841e+00
3.325e-01,1.902e+00
3.375e-01,1.961e+00
3.425e-01,2.019e+00
3.475e-01,2.074e+00
3.525e-01,2.128e+00
3.575e-01,2.179e+00
3.625e-01,2.228e+00
3.675e-01,2.274e+00
3.725e-01,2.318e+00
3.775e-01,2.358e+00
3.825e-01,2.396e+00
3.875e-01,2.431e+00
3.925e-01,2.462e+00
3.975e-01,2.491e+00
4.025e-01,2.516e+00
4.075e-01,2.538e+00
4.125e-01,2.557e+00
4.175e-01,2.573e+00
4.225e-01,2.585e+00
4.275e-01,2.594e+00
4.325e-01,2.601e+00
4.375e-01,2.603e+00
4.425e-01,2.603e+00
4.475e-01,2.600e+00
4.525e-01,2.594e+00
4.575e-01,2.585e+00
4.625e-01,2.574e+00
4.675e-01,2.559e+00
4.725e-01,2.543e+00
4.775e-01,2.524e+00
4.825e-01,2.502e+00
4.875e-01,2.478e+00
4.925e-01,2.453e+00
4.975e-01,2.425e+00
5.025e-01,2.396e+00
5.075e-01,2.365e+00
5.125e-01,2.332e+00
5.175e-01,2.298e+00
5.225e-01,2.262e+00
5.275e-01,2.226e+00
5.325e-01,2.188e+00
5.375e-01,2.149e+00
5.425e-01,2.110e+00
5.475e-01,2.069e+00
5.525e-01,2.028e+00
5.575e-01,1.987e+00
5.625e-01,1.945e+00
5.675e-01,1.902e+00
5.725e-01,1.860e+00
5.775e-01,1.817e+00
5.825e-01,1.774e+00
5.875e-01,1.731e+00
5.925e-01,1.689e+00
5.975e-01,1.646e+00
6.025e-01,1.604e+00
6.075e-01,1.561e+00
6.125e-01,1.519e+00
6.175e-01,1.478e+00
6.225e-01,1.437e+00
6.275e-01,1.396e+00
6.325e-01,1.356e+00
6.375e-01,1.317e+00
6.425e-01,1.277e+00
6.475e-01,1.239e+00
6.525e-01,1.201e+00
6.575e-01,1.164e+00
6.625e-01,1.128e+00
6.675e-01,1.092e+00
6.725e-01,1.057e+00
6.775e-01,1.023e+00
6.825e-01,9.891e-01
6.875e-01,9.563e-01
6.925e-01,9.243e-01
6.975e-01,8.930e-01
7.025e-01,8.625e-01
7.075e-01,8.327e-01
7.125e-01,8.037e-01
7.175e-01,7.755e-01
7.225e-01,7.480e-01
7.275e-01,7.213e-01
7.325e-01,6.953e-01
7.375e-01,6.701e-01
7.425e-01,6.456e-01
7.475e-01,6.218e-01
7.525e-01,5.988e-01
7.575e-01,5.764e-01
7.625e-01,5.548e-01
7.675e-01,5.338e-01
7.725e-01,5.135e-01
7.775e-01,4.938e-01
7.825e-01,4.748e-01
7.875e-01,4.564e-01
7.925e-01,4.386e-01
7.975e-01,4.214e-01
8.025e-01,4.048e-01
8.075e-01,3.888e-01
8.125e-01,3.734e-01
8.175e-01,3.584e-01
8.225e-01,3.441e-01
8.275e-01,3.302e-01
8.325e-01,3.168e-01
8.375e-01,3.039e-01
8.425e-01,2.915e-01
8.475e-01,2.796e-01
8.525e-01,2.680e-01
8.575e-01,2.570e-01
8.625e-01,2.463e-01
8.675e-01,2.361e-01
8.725e-01,2.262e-01
8.775e-01,2.167e-01
8.825e-01,2.076e-01
8.875e-01,1.988e-01
8.925e-01,1.904e-01
8.975e-01,1.823e-01
9.025e-01,1.746e-01
9.075e-01,1.671e-01
9.125e-01,1.600e-01
9.175e-01,1.531e-01
9.225e-01,1.465e-01
9.275e-01,1.402e-01
9.325e-01,1.341e-01
9.375e-01,1.283e-01
9.425e-01,1.227e-01
9.475e-01,1.174e-01
9.525e-01,1.122e-01
9.575e-01,1.073e-01
9.625e-01,1.026e-01
9.675e-01,9.811e-02
9.725e-01,9.379e-02
9.775e-01,8.965e-02
9.825e-01,8.569e-02
9.875e-01,8.189e-02
9.925e-01,7.826e-02
9.975e-01,7.478e-02
