transmittance,probability_density
2.500e-03,1.188e-23
7.500e-03,7.441e-11
1.250e-02,4.429e-07
1.750e-02,2.491e-05
2.250e-02,2.207e-04
2.750e-02,7.988e-04
3.250e-02,1.801e-03
3.750e-02,3.135e-03
4.250e-02,4.742e-03
4.750e-02,6.647e-03
5.250e-02,8.930e-03
5.750e-02,1.168e-02
6.250e-02,1.498e-02
6.750e-02,1.889e-02
7.250e-02,2.344e-02
7.750e-02,2.868e-02
8.250e-02,3.466e-02
8.750e-02,4.142e-02
9.250e-02,4.903e-02
9.750e-02,5.754e-02
1.025e-01,6.703e-02
1.075e-01,7.756e-02
1.125e-01,8.920e-02
1.175e-01,1.020e-01
1.225e-01,1.160e-01
1.275e-01,1.314e-01
1.325e-01,1.480e-01
1.375e-01,1.661e-01
1.425e-01,1.856e-01
1.475e-01,2.066e-01
1.525e-01,2.291e-01
1.575e-01,2.533e-01
1.625e-01,2.790e-01
1.675e-01,3.065e-01
1.725e-01,3.357e-01
1.775e-01,3.666e-01
1.825e-01,3.993e-01
1.875e-01,4.339e-01
1.925e-01,4.704e-01
1.975e-01,5.087e-01
2.025e-01,5.490e-01
2.075e-01,5.911e-01
2.125e-01,6.352e-01
2.175e-01,6.811e-01
2.225e-01,7.288e-01
2.275e-01,7.784e-01
2.325e-01,8.297e-01
2.375e-01,8.826e-01
2.425e-01,9.371e-01
2.475e-01,9.931e-01
2.525e-01,1.050e+00
2.575e-01,1.109e+00
2.625e-01,1.169e+00
2.675e-01,1.229e+00
2.725e-01,1.290e+00
2.775e-01,1.352e+00
2.825e-01,1.414e+00
2.875e-01,1.477e+00
2.925e-01,1.539e+00
2.975e-01,1.601e+00
3.025e-01,1.662e+00
3.075e-01,1.723e+00
3.125e-01,1.783e+00
3.175e-01,1.842e+00
3.225e-01,1.899e+00
3.275e-01,1.955e+00
3.325e-01,2.010e+00
3.375e-01,2.062e+00
3.425e-01,2.113e+00
3.475e-01,2.161e+00
3.525e-01,2.207e+00
3.575e-01,2.250e+00
3.625e-01,2.291e+00
3.675e-01,2.329e+00
3.725e-01,2.364e+00
3.775e-01,2.397e+00
3.825e-01,2.426e+00
3.875e-01,2.453e+00
3.925e-01,2.476e+00
3.975e-01,2.496e+00
4.025e-01,2.513e+00
4.075e-01,2.528e+00
4.125e-01,2.539e+00
4.175e-01,2.547e+00
4.225e-01,2.552e+00
4.275e-01,2.554e+00
4.325e-01,2.553e+00
4.375e-01,2.550e+00
4.425e-01,2.543e+00
4.475e-01,2.534e+00
4.525e-01,2.523e+00
4.575e-01,2.509e+00
4.625e-01,2.492e+00
4.675e-01,2.474e+00
4.725e-01,2.453e+00
4.775e-01,2.430e+00
4.825e-01,2.405e+00
4.875e-01,2.378e+00
4.925e-01,2.350e+00
4.975e-01,2.320e+00
5.025e-01,2.289e+00
5.075e-01,2.256e+00
5.125e-01,2.222e+00
5.175e-01,2.187e+00
5.225e-01,2.150e+00
5.275e-01,2.113e+00
5.325e-01,2.075e+00
5.375e-01,2.036e+00
5.425e-01,1.997e+00
5.475e-01,1.957e+00
5.525e-01,1.917e+00
5.575e-01,1.876e+00
5.625e-01,1.835e+00
5.675e-01,1.794e+00
5.725e-01,1.753e+00
5.775e-01,1.712e+00
5.825e-01,1.671e+00
5.875e-01,1.630e+00
5.925e-01,1.589e+00
5.975e-01,1.548e+00
6.025e-01,1.508e+00
6.075e-01,1.468e+00
6.125e-01,1.428e+00
6.175e-01,1.389e+00
6.225e-01,1.350e+00
6.275e-01,1.312e+00
6.325e-01,1.274e+00
6.375e-01,1.237e+00
6.425e-01,1.201e+00
6.475e-01,1.165e+00
6.525e-01,1.129e+00
6.575e-01,1.095e+00
6.625e-01,1.061e+00
6.675e-01,1.027e+00
6.725e-01,9.946e-01
6.775e-01,9.627e-01
6.825e-01,9.314e-01
6.875e-01,9.009e-01
6.925e-01,8.711e-01
6.975e-01,8.420e-01
7.025e-01,8.136e-01
7.075e-01,7.859e-01
7.125e-01,7.590e-01
7.175e-01,7.328e-01
7.225e-01,7.072e-01
7.275e-01,6.824e-01
7.325e-01,6.583e-01
7.375e-01,6.348e-01
7.425e-01,6.121e-01
7.475e-01,5.900e-01
7.525e-01,5.685e-01
7.575e-01,5.477e-01
7.625e-01,5.276e-01
7.675e-01,5.080e-01
7.725e-01,4.891e-01
7.775e-01,4.708e-01
7.825e-01,4.531e-01
7.875e-01,4.359e-01
7.925e-01,4.194e-01
7.975e-01,4.033e-01
8.025e-01,3.878e-01
8.075e-01,3.729e-01
8.125e-01,3.584e-01
8.175e-01,3.444e-01
8.225e-01,3.310e-01
8.275e-01,3.180e-01
8.325e-01,3.054e-01
8.375e-01,2.933e-01
8.425e-01,2.817e-01
8.475e-01,2.704e-01
8.525e-01,2.596e-01
8.575e-01,2.492e-01
8.625e-01,2.391e-01
8.675e-01,2.295e-01
8.725e-01,2.202e-01
8.775e-01,2.112e-01
8.825e-01,2.026e-01
8.875e-01,1.943e-01
8.925e-01,1.863e-01
8.975e-01,1.786e-01
9.025e-01,1.712e-01
9.075e-01,1.642e-01
9.125e-01,1.573e-01
9.175e-01,1.508e-01
9.225e-01,1.445e-01
9.275e-01,1.385e-01
9.325e-01,1.326e-01
9.375e-01,1.271e-01
9.425e-01,1.217e-01
9.475e-01,1.166e-01
9.525e-01,1.117e-01
9.575e-01,1.069e-01
9.625e-01,1.024e-01
9.675e-01,9.804e-02
9.725e-01,9.386e-02
9.775e-01,8.986e-02
9.825e-01,8.602e-02
9.875e-01,8.233e-02
9.925e-01,7.880e-02
9.975e-01,7.542e-02
