transmittance,probability_density
2.500e-03,2.635e-21
7.500e-03,6.209e-10
1.250e-02,1.172e-06
1.750e-02,3.712e-05
2.250e-02,2.434e-04
2.750e-02,7.602e-04
3.250e-02,1.613e-03
3.750e-02,2.763e-03
4.250e-02,4.193e-03
4.750e-02,5.933e-03
5.250e-02,8.053e-03
5.750e-02,1.064e-02
6.250e-02,1.377e-02
6.750e-02,1.754e-02
7.250e-02,2.203e-02
7.750e-02,2.731e-02
8.250e-02,3.345e-02
8.750e-02,4.053e-02
9.250e-02,4.863e-02
9.750e-02,5.781e-02
1.025e-01,6.815e-02
1.075e-01,7.973e-02
1.125e-01,9.262e-02
1.175e-01,1.069e-01
1.225e-01,1.227e-01
1.275e-01,1.400e-01
1.325e-01,1.590e-01
1.375e-01,1.797e-01
1.425e-01,2.023e-01
1.475e-01,2.268e-01
1.525e-01,2.533e-01
1.575e-01,2.819e-01
1.625e-01,3.127e-01
1.675e-01,3.457e-01
1.725e-01,3.811e-01
1.775e-01,4.188e-01
1.825e-01,4.589e-01
1.875e-01,5.014e-01
1.925e-01,5.463e-01
1.975e-01,5.937e-01
2.025e-01,6.435e-01
2.075e-01,6.956e-01
2.125e-01,7.499e-01
2.175e-01,8.065e-01
2.225e-01,8.651e-01
2.275e-01,9.257e-01
2.325e-01,9.881e-01
2.375e-01,1.052e+00
2.425e-01,1.118e+00
2.475e-01,1.184e+00
2.525e-01,1.252e+00
2.575e-01,1.321e+00
2.625e-01,1.390e+00
2.675e-01,1.459e+00
2.725e-01,1.528e+00
2.775e-01,1.598e+00
2.825e-01,1.666e+00
2.875e-01,1.734e+00
2.925e-01,1.802e+00
2.975e-01,1.867e+00
3.025e-01,1.932e+00
3.075e-01,1.994e+00
3.125e-01,2.055e+00
3.175e-01,2.113e+00
3.225e-01,2.169e+00
3.275e-01,2.223e+00
3.325e-01,2.274e+00
3.375e-01,2.322e+00
3.425e-01,2.367e+00
3.475e-01,2.408e+00
3.525e-01,2.447e+00
3.575e-01,2.482e+00
3.625e-01,2.514e+00
3.675e-01,2.542e+00
3.725e-01,2.567e+00
3.775e-01,2.589e+00
3.825e-01,2.607e+00
3.875e-01,2.621e+00
3.925e-01,2.632e+00
3.975e-01,2.640e+00
4.025e-01,2.645e+00
4.075e-01,2.646e+00
4.125e-01,2.644e+00
4.175e-01,2.638e+00
4.225e-01,2.630e+00
4.275e-01,2.619e+00
4.325e-01,2.605e+00
4.375e-01,2.589e+00
4.425e-01,2.570e+00
4.475e-01,2.548e+00
4.525e-01,2.525e+00
4.575e-01,2.499e+00
4.625e-01,2.471e+00
4.675e-01,2.441e+00
4.725e-01,2.409e+00
4.775e-01,2.376e+00
4.825e-01,2.341e+00
4.875e-01,2.305e+00
4.925e-01,2.268e+00
4.975e-01,2.229e+00
5.025e-01,2.190e+00
5.075e-01,2.150e+00
5.125e-01,2.109e+00
5.175e-01,2.067e+00
5.225e-01,2.025e+00
5.275e-01,1.982e+00
5.325e-01,1.939e+00
5.375e-01,1.896e+00
5.425e-01,1.852e+00
5.475e-01,1.809e+00
5.525e-01,1.765e+00
5.575e-01,1.722e+00
5.625e-01,1.678e+00
5.675e-01,1.635e+00
5.725e-01,1.592e+00
5.775e-01,1.550e+00
5.825e-01,1.508e+00
5.875e-01,1.466e+00
5.925e-01,1.425e+00
5.975e-01,1.384e+00
6.025e-01,1.344e+00
6.075e-01,1.305e+00
6.125e-01,1.266e+00
6.175e-01,1.227e+00
6.225e-01,1.190e+00
6.275e-01,1.153e+00
6.325e-01,1.117e+00
6.375e-01,1.081e+00
6.425e-01,1.047e+00
6.475e-01,1.013e+00
6.525e-01,9.796e-01
6.575e-01,9.472e-01
6.625e-01,9.156e-01
6.675e-01,8.848e-01
6.725e-01,8.547e-01
6.775e-01,8.254e-01
6.825e-01,7.968e-01
6.875e-01,7.690e-01
6.925e-01,7.420e-01
6.975e-01,7.158e-01
7.025e-01,6.902e-01
7.075e-01,6.654e-01
7.125e-01,6.414e-01
7.175e-01,6.180e-01
7.225e-01,5.954e-01
7.275e-01,5.735e-01
7.325e-01,5.522e-01
7.375e-01,5.316e-01
7.425e-01,5.117e-01
7.475e-01,4.924e-01
7.525e-01,4.737e-01
7.575e-01,4.557e-01
7.625e-01,4.382e-01
7.675e-01,4.214e-01
7.725e-01,4.051e-01
7.775e-01,3.894e-01
7.825e-01,3.742e-01
7.875e-01,3.595e-01
7.925e-01,3.454e-01
7.975e-01,3.317e-01
8.025e-01,3.186e-01
8.075e-01,3.059e-01
8.125e-01,2.937e-01
8.175e-01,2.819e-01
8.225e-01,2.706e-01
8.275e-01,2.597e-01
8.325e-01,2.492e-01
8.375e-01,2.390e-01
8.425e-01,2.293e-01
8.475e-01,2.199e-01
8.525e-01,2.109e-01
8.575e-01,2.023e-01
8.625e-01,1.939e-01
8.675e-01,1.859e-01
8.725e-01,1.782e-01
8.775e-01,1.708e-01
8.825e-01,1.637e-01
8.875e-01,1.569e-01
8.925e-01,1.503e-01
8.975e-01,1.440e-01
9.025e-01,1.380e-01
9.075e-01,1.322e-01
9.125e-01,1.266e-01
9.175e-01,1.213e-01
9.225e-01,1.161e-01
9.275e-01,1.112e-01
9.325e-01,1.065e-01
9.375e-01,1.020e-01
9.425e-01,9.762e-02
9.475e-01,9.345e-02
9.525e-01,8.946e-02
9.575e-01,8.563e-02
9.625e-01,8.196e-02
9.675e-01,7.844e-02
9.725e-01,7.507e-02
9.775e-01,7.184e-02
9.825e-01,6.875e-02
9.875e-01,6.578e-02
9.925e-01,6.294e-02
9.975e-01,6.022e-02
