transmittance,probability_density
2.500e-03,6.242e-21
7.500e-03,8.839e-09
1.250e-02,1.383e-05
1.750e-02,2.479e-04
2.250e-02,7.823e-04
2.750e-02,1.106e-03
3.250e-02,1.188e-03
3.750e-02,1.455e-03
4.250e-02,2.159e-03
4.750e-02,3.286e-03
5.250e-02,4.732e-03
5.750e-02,6.442e-03
6.250e-02,8.437e-03
6.750e-02,1.079e-02
7.250e-02,1.359e-02
7.750e-02,1.693e-02
8.250e-02,2.089e-02
8.750e-02,2.552e-02
9.250e-02,3.084e-02
9.750e-02,3.689e-02
1.025e-01,4.366e-02
1.075e-01,5.118e-02
1.125e-01,5.944e-02
1.175e-01,6.847e-02
1.225e-01,7.829e-02
1.275e-01,8.894e-02
1.325e-01,1.004e-01
1.375e-01,1.129e-01
1.425e-01,1.263e-01
1.475e-01,1.407e-01
1.525e-01,1.562e-01
1.575e-01,1.728e-01
1.625e-01,1.906e-01
1.675e-01,2.098e-01
1.725e-01,2.302e-01
1.775e-01,2.521e-01
1.825e-01,2.754e-01
1.875e-01,3.001e-01
1.925e-01,3.265e-01
1.975e-01,3.545e-01
2.025e-01,3.841e-01
2.075e-01,4.153e-01
2.125e-01,4.483e-01
2.175e-01,4.831e-01
2.225e-01,5.196e-01
2.275e-01,5.579e-01
2.325e-01,5.979e-01
2.375e-01,6.398e-01
2.425e-01,6.834e-01
2.475e-01,7.287e-01
2.525e-01,7.757e-01
2.575e-01,8.244e-01
2.625e-01,8.746e-01
2.675e-01,9.263e-01
2.725e-01,9.794e-01
2.775e-01,1.034e+00
2.825e-01,1.089e+00
2.875e-01,1.146e+00
2.925e-01,1.204e+00
2.975e-01,1.262e+00
3.025e-01,1.321e+00
3.075e-01,1.380e+00
3.125e-01,1.440e+00
3.175e-01,1.500e+00
3.225e-01,1.559e+00
3.275e-01,1.619e+00
3.325e-01,1.677e+00
3.375e-01,1.736e+00
3.425e-01,1.793e+00
3.475e-01,1.849e+00
3.525e-01,1.904e+00
3.575e-01,1.958e+00
3.625e-01,2.009e+00
3.675e-01,2.060e+00
3.725e-01,2.108e+00
3.775e-01,2.154e+00
3.825e-01,2.198e+00
3.875e-01,2.240e+00
3.925e-01,2.279e+00
3.975e-01,2.315e+00
4.025e-01,2.349e+00
4.075e-01,2.380e+00
4.125e-01,2.409e+00
4.175e-01,2.434e+00
4.225e-01,2.457e+00
4.275e-01,2.477e+00
4.325e-01,2.493e+00
4.375e-01,2.507e+00
4.425e-01,2.518e+00
4.475e-01,2.526e+00
4.525e-01,2.531e+00
4.575e-01,2.533e+00
4.625e-01,2.533e+00
4.675e-01,2.529e+00
4.725e-01,2.523e+00
4.775e-01,2.515e+00
4.825e-01,2.504e+00
4.875e-01,2.490e+00
4.925e-01,2.474e+00
4.975e-01,2.456e+00
5.025e-01,2.436e+00
5.075e-01,2.414e+00
5.125e-01,2.389e+00
5.175e-01,2.363e+00
5.225e-01,2.336e+00
5.275e-01,2.306e+00
5.325e-01,2.275e+00
5.375e-01,2.243e+00
5.425e-01,2.210e+00
5.475e-01,2.175e+00
5.525e-01,2.139e+00
5.575e-01,2.103e+00
5.625e-01,2.065e+00
5.675e-01,2.027e+00
5.725e-01,1.988e+00
5.775e-01,1.948e+00
5.825e-01,1.908e+00
5.875e-01,1.868e+00
5.925e-01,1.827e+00
5.975e-01,1.786e+00
6.025e-01,1.745e+00
6.075e-01,1.704e+00
6.125e-01,1.663e+00
6.175e-01,1.622e+00
6.225e-01,1.582e+00
6.275e-01,1.541e+00
6.325e-01,1.501e+00
6.375e-01,1.461e+00
6.425e-01,1.421e+00
6.475e-01,1.382e+00
6.525e-01,1.343e+00
6.575e-01,1.304e+00
6.625e-01,1.266e+00
6.675e-01,1.229e+00
6.725e-01,1.192e+00
6.775e-01,1.156e+00
6.825e-01,1.121e+00
6.875e-01,1.086e+00
6.925e-01,1.052e+00
6.975e-01,1.018e+00
7.025e-01,9.854e-01
7.075e-01,9.532e-01
7.125e-01,9.218e-01
7.175e-01,8.911e-01
7.225e-01,8.611e-01
7.275e-01,8.319e-01
7.325e-01,8.033e-01
7.375e-01,7.755e-01
7.425e-01,7.484e-01
7.475e-01,7.221e-01
7.525e-01,6.964e-01
7.575e-01,6.715e-01
7.625e-01,6.472e-01
7.675e-01,6.237e-01
7.725e-01,6.008e-01
7.775e-01,5.787e-01
7.825e-01,5.572e-01
7.875e-01,5.363e-01
7.925e-01,5.161e-01
7.975e-01,4.965e-01
8.025e-01,4.776e-01
8.075e-01,4.593e-01
8.125e-01,4.415e-01
8.175e-01,4.244e-01
8.225e-01,4.078e-01
8.275e-01,3.918e-01
8.325e-01,3.764e-01
8.375e-01,3.614e-01
8.425e-01,3.470e-01
8.475e-01,3.331e-01
8.525e-01,3.197e-01
8.575e-01,3.068e-01
8.625e-01,2.944e-01
8.675e-01,2.824e-01
8.725e-01,2.708e-01
8.775e-01,2.597e-01
8.825e-01,2.489e-01
8.875e-01,2.386e-01
8.925e-01,2.287e-01
8.975e-01,2.192e-01
9.025e-01,2.100e-01
9.075e-01,2.011e-01
9.125e-01,1.927e-01
9.175e-01,1.845e-01
9.225e-01,1.767e-01
9.275e-01,1.691e-01
9.325e-01,1.619e-01
9.375e-01,1.550e-01
9.425e-01,1.483e-01
9.475e-01,1.419e-01
9.525e-01,1.358e-01
9.575e-01,1.299e-01
9.625e-01,1.243e-01
9.675e-01,1.189e-01
9.725e-01,1.137e-01
9.775e-01,1.087e-01
9.825e-01,1.039e-01
9.875e-01,9.936e-02
9.925e-01,9.498e-02
9.975e-01,9.078e-02
