transmittance,probability_density
2.500e-03,3.661e-35
7.500e-03,8.883e-16
1.250e-02,6.324e-10
1.750e-02,3.706e-07
2.250e-02,1.204e-05
2.750e-02,9.005e-05
3.250e-02,2.931e-04
3.750e-02,5.886e-04
4.250e-02,9.151e-04
4.750e-02,1.287e-03
5.250e-02,1.774e-03
5.750e-02,2.430e-03
6.250e-02,3.268e-03
6.750e-02,4.279e-03
7.250e-02,5.455e-03
7.750e-02,6.804e-03
8.250e-02,8.348e-03
8.750e-02,1.012e-02
9.250e-02,1.216e-02
9.750e-02,1.450e-02
1.025e-01,1.720e-02
1.075e-01,2.029e-02
1.125e-01,2.382e-02
1.175e-01,2.783e-02
1.225e-01,3.235e-02
1.275e-01,3.741e-02
1.325e-01,4.304e-02
1.375e-01,4.926e-02
1.425e-01,5.609e-02
1.475e-01,6.355e-02
1.525e-01,7.166e-02
1.575e-01,8.044e-02
1.625e-01,8.990e-02
1.675e-01,1.001e-01
1.725e-01,1.110e-01
1.775e-01,1.226e-01
1.825e-01,1.351e-01
1.875e-01,1.484e-01
1.925e-01,1.625e-01
1.975e-01,1.775e-01
2.025e-01,1.934e-01
2.075e-01,2.103e-01
2.125e-01,2.282e-01
2.175e-01,2.471e-01
2.225e-01,2.671e-01
2.275e-01,2.882e-01
2.325e-01,3.105e-01
2.375e-01,3.340e-01
2.425e-01,3.588e-01
2.475e-01,3.848e-01
2.525e-01,4.121e-01
2.575e-01,4.408e-01
2.625e-01,4.709e-01
2.675e-01,5.024e-01
2.725e-01,5.353e-01
2.775e-01,5.697e-01
2.825e-01,6.056e-01
2.875e-01,6.430e-01
2.925e-01,6.818e-01
2.975e-01,7.221e-01
3.025e-01,7.639e-01
3.075e-01,8.071e-01
3.125e-01,8.517e-01
3.175e-01,8.976e-01
3.225e-01,9.449e-01
3.275e-01,9.934e-01
3.325e-01,1.043e+00
3.375e-01,1.094e+00
3.425e-01,1.146e+00
3.475e-01,1.199e+00
3.525e-01,1.252e+00
3.575e-01,1.306e+00
3.625e-01,1.361e+00
3.675e-01,1.416e+00
3.725e-01,1.472e+00
3.775e-01,1.527e+00
3.825e-01,1.583e+00
3.875e-01,1.638e+00
3.925e-01,1.693e+00
3.975e-01,1.747e+00
4.025e-01,1.801e+00
4.075e-01,1.854e+00
4.125e-01,1.906e+00
4.175e-01,1.956e+00
4.225e-01,2.005e+00
4.275e-01,2.053e+00
4.325e-01,2.099e+00
4.375e-01,2.143e+00
4.425e-01,2.186e+00
4.475e-01,2.226e+00
4.525e-01,2.264e+00
4.575e-01,2.299e+00
4.625e-01,2.333e+00
4.675e-01,2.363e+00
4.725e-01,2.392e+00
4.775e-01,2.417e+00
4.825e-01,2.440e+00
4.875e-01,2.460e+00
4.925e-01,2.477e+00
4.975e-01,2.492e+00
5.025e-01,2.503e+00
5.075e-01,2.512e+00
5.125e-01,2.518e+00
5.175e-01,2.522e+00
5.225e-01,2.522e+00
5.275e-01,2.520e+00
5.325e-01,2.515e+00
5.375e-01,2.508e+00
5.425e-01,2.498e+00
5.475e-01,2.485e+00
5.525e-01,2.470e+00
5.575e-01,2.453e+00
5.625e-01,2.434e+00
5.675e-01,2.413e+00
5.725e-01,2.389e+00
5.775e-01,2.364e+00
5.825e-01,2.337e+00
5.875e-01,2.308e+00
5.925e-01,2.277e+00
5.975e-01,2.245e+00
6.025e-01,2.212e+00
6.075e-01,2.177e+00
6.125e-01,2.142e+00
6.175e-01,2.105e+00
6.225e-01,2.067e+00
6.275e-01,2.028e+00
6.325e-01,1.989e+00
6.375e-01,1.949e+00
6.425e-01,1.908e+00
6.475e-01,1.867e+00
6.525e-01,1.826e+00
6.575e-01,1.784e+00
6.625e-01,1.742e+00
6.675e-01,1.700e+00
6.725e-01,1.658e+00
6.775e-01,1.616e+00
6.825e-01,1.574e+00
6.875e-01,1.533e+00
6.925e-01,1.491e+00
6.975e-01,1.450e+00
7.025e-01,1.409e+00
7.075e-01,1.368e+00
7.125e-01,1.328e+00
7.175e-01,1.289e+00
7.225e-01,1.250e+00
7.275e-01,1.211e+00
7.325e-01,1.174e+00
7.375e-01,1.136e+00
7.425e-01,1.100e+00
7.475e-01,1.064e+00
7.525e-01,1.029e+00
7.575e-01,9.941e-01
7.625e-01,9.603e-01
7.675e-01,9.273e-01
7.725e-01,8.950e-01
7.775e-01,8.635e-01
7.825e-01,8.327e-01
7.875e-01,8.027e-01
7.925e-01,7.735e-01
7.975e-01,7.451e-01
8.025e-01,7.174e-01
8.075e-01,6.905e-01
8.125e-01,6.644e-01
8.175e-01,6.391e-01
8.225e-01,6.144e-01
8.275e-01,5.906e-01
8.325e-01,5.674e-01
8.375e-01,5.450e-01
8.425e-01,5.233e-01
8.475e-01,5.023e-01
8.525e-01,4.820e-01
8.575e-01,4.624e-01
8.625e-01,4.434e-01
8.675e-01,4.251e-01
8.725e-01,4.075e-01
8.775e-01,3.904e-01
8.825e-01,3.740e-01
8.875e-01,3.581e-01
8.925e-01,3.429e-01
8.975e-01,3.282e-01
9.025e-01,3.140e-01
9.075e-01,3.004e-01
9.125e-01,2.873e-01
9.175e-01,2.747e-01
9.225e-01,2.626e-01
9.275e-01,2.510e-01
9.325e-01,2.398e-01
9.375e-01,2.291e-01
9.425e-01,2.188e-01
9.475e-01,2.090e-01
9.525e-01,1.995e-01
9.575e-01,1.904e-01
9.625e-01,1.817e-01
9.675e-01,1.734e-01
9.725e-01,1.654e-01
9.775e-01,1.577e-01
9.825e-01,1.504e-01
9.875e-01,1.434e-01
9.925e-01,1.367e-01
9.975e-01,1.303e-01
