transmittance,probability_density
2.500e-03,3.565e-285
7.500e-03,9.838e-150
1.250e-02,8.444e-102
1.750e-02,1.920e-75
2.250e-02,1.847e-58
2.750e-02,1.472e-46
3.250e-02,8.945e-38
3.750e-02,4.610e-31
4.250e-02,8.319e-26
4.750e-02,1.288e-21
5.250e-02,3.114e-18
5.750e-02,1.781e-15
6.250e-02,3.250e-13
6.750e-02,2.362e-11
7.250e-02,8.082e-10
7.750e-02,1.483e-08
8.250e-02,1.615e-07
8.750e-02,1.133e-06
9.250e-02,5.470e-06
9.750e-02,1.923e-05
1.025e-01,5.160e-05
1.075e-01,1.104e-04
1.125e-01,1.967e-04
1.175e-01,3.041e-04
1.225e-01,4.268e-04
1.275e-01,5.659e-04
1.325e-01,7.297e-04
1.375e-01,9.261e-04
1.425e-01,1.156e-03
1.475e-01,1.415e-03
1.525e-01,1.697e-03
1.575e-01,2.001e-03
1.625e-01,2.328e-03
1.675e-01,2.682e-03
1.725e-01,3.064e-03
1.775e-01,3.470e-03
1.825e-01,3.894e-03
1.875e-01,4.331e-03
1.925e-01,4.781e-03
1.975e-01,5.252e-03
2.025e-01,5.754e-03
2.075e-01,6.305e-03
2.125e-01,6.921e-03
2.175e-01,7.621e-03
2.225e-01,8.418e-03
2.275e-01,9.323e-03
2.325e-01,1.034e-02
2.375e-01,1.147e-02
2.425e-01,1.271e-02
2.475e-01,1.406e-02
2.525e-01,1.551e-02
2.575e-01,1.706e-02
2.625e-01,1.870e-02
2.675e-01,2.045e-02
2.725e-01,2.230e-02
2.775e-01,2.427e-02
2.825e-01,2.638e-02
2.875e-01,2.863e-02
2.925e-01,3.105e-02
2.975e-01,3.364e-02
3.025e-01,3.642e-02
3.075e-01,3.940e-02
3.125e-01,4.257e-02
3.175e-01,4.596e-02
3.225e-01,4.955e-02
3.275e-01,5.335e-02
3.325e-01,5.736e-02
3.375e-01,6.160e-02
3.425e-01,6.606e-02
3.475e-01,7.076e-02
3.525e-01,7.571e-02
3.575e-01,8.092e-02
3.625e-01,8.642e-02
3.675e-01,9.222e-02
3.725e-01,9.834e-02
3.775e-01,1.048e-01
3.825e-01,1.116e-01
3.875e-01,1.189e-01
3.925e-01,1.265e-01
3.975e-01,1.346e-01
4.025e-01,1.431e-01
4.075e-01,1.521e-01
4.125e-01,1.616e-01
4.175e-01,1.716e-01
4.225e-01,1.821e-01
4.275e-01,1.931e-01
4.325e-01,2.048e-01
4.375e-01,2.170e-01
4.425e-01,2.298e-01
4.475e-01,2.433e-01
4.525e-01,2.574e-01
4.575e-01,2.723e-01
4.625e-01,2.878e-01
4.675e-01,3.041e-01
4.725e-01,3.212e-01
4.775e-01,3.392e-01
4.825e-01,3.580e-01
4.875e-01,3.777e-01
4.925e-01,3.983e-01
4.975e-01,4.200e-01
5.025e-01,4.427e-01
5.075e-01,4.665e-01
5.125e-01,4.914e-01
5.175e-01,5.176e-01
5.225e-01,5.450e-01
5.275e-01,5.736e-01
5.325e-01,6.037e-01
5.375e-01,6.352e-01
5.425e-01,6.681e-01
5.475e-01,7.026e-01
5.525e-01,7.387e-01
5.575e-01,7.766e-01
5.625e-01,8.161e-01
5.675e-01,8.575e-01
5.725e-01,9.009e-01
5.775e-01,9.462e-01
5.825e-01,9.935e-01
5.875e-01,1.043e+00
5.925e-01,1.095e+00
5.975e-01,1.149e+00
6.025e-01,1.205e+00
6.075e-01,1.263e+00
6.125e-01,1.324e+00
6.175e-01,1.388e+00
6.225e-01,1.453e+00
6.275e-01,1.521e+00
6.325e-01,1.592e+00
6.375e-01,1.664e+00
6.425e-01,1.739e+00
6.475e-01,1.816e+00
6.525e-01,1.895e+00
6.575e-01,1.975e+00
6.625e-01,2.057e+00
6.675e-01,2.140e+00
6.725e-01,2.224e+00
6.775e-01,2.309e+00
6.825e-01,2.393e+00
6.875e-01,2.478e+00
6.925e-01,2.562e+00
6.975e-01,2.645e+00
7.025e-01,2.727e+00
7.075e-01,2.806e+00
7.125e-01,2.883e+00
7.175e-01,2.957e+00
7.225e-01,3.028e+00
7.275e-01,3.095e+00
7.325e-01,3.157e+00
7.375e-01,3.214e+00
7.425e-01,3.266e+00
7.475e-01,3.312e+00
7.525e-01,3.352e+00
7.575e-01,3.386e+00
7.625e-01,3.413e+00
7.675e-01,3.433e+00
7.725e-01,3.445e+00
7.775e-01,3.451e+00
7.825e-01,3.448e+00
7.875e-01,3.439e+00
7.925e-01,3.422e+00
7.975e-01,3.398e+00
8.025e-01,3.367e+00
8.075e-01,3.329e+00
8.125e-01,3.284e+00
8.175e-01,3.232e+00
8.225e-01,3.175e+00
8.275e-01,3.112e+00
8.325e-01,3.044e+00
8.375e-01,2.971e+00
8.425e-01,2.893e+00
8.475e-01,2.812e+00
8.525e-01,2.727e+00
8.575e-01,2.639e+00
8.625e-01,2.549e+00
8.675e-01,2.457e+00
8.725e-01,2.364e+00
8.775e-01,2.269e+00
8.825e-01,2.174e+00
8.875e-01,2.079e+00
8.925e-01,1.984e+00
8.975e-01,1.890e+00
9.025e-01,1.797e+00
9.075e-01,1.705e+00
9.125e-01,1.615e+00
9.175e-01,1.526e+00
9.225e-01,1.440e+00
9.275e-01,1.357e+00
9.325e-01,1.276e+00
9.375e-01,1.197e+00
9.425e-01,1.122e+00
9.475e-01,1.049e+00
9.525e-01,9.797e-01
9.575e-01,9.132e-01
9.625e-01,8.499e-01
9.675e-01,7.896e-01
9.725e-01,7.325e-01
9.775e-01,6.783e-01
9.825e-01,6.272e-01
9.875e-01,5.790e-01
9.925e-01,5.338e-01
9.975e-01,4.913e-01
