transmittance,probability_density
2.500e-03,1.150e-88
7.500e-03,1.754e-41
1.250e-02,5.071e-26
1.750e-02,4.393e-18
2.250e-02,2.556e-13
2.750e-02,3.145e-10
3.250e-02,3.857e-08
3.750e-02,1.063e-06
4.250e-02,1.057e-05
4.750e-02,5.114e-05
5.250e-02,1.475e-04
5.750e-02,2.956e-04
6.250e-02,4.645e-04
6.750e-02,6.306e-04
7.250e-02,7.927e-04
7.750e-02,9.612e-04
8.250e-02,1.153e-03
8.750e-02,1.393e-03
9.250e-02,1.713e-03
9.750e-02,2.141e-03
1.025e-01,2.685e-03
1.075e-01,3.334e-03
1.125e-01,4.061e-03
1.175e-01,4.838e-03
1.225e-01,5.646e-03
1.275e-01,6.474e-03
1.325e-01,7.324e-03
1.375e-01,8.207e-03
1.425e-01,9.140e-03
1.475e-01,1.014e-02
1.525e-01,1.123e-02
1.575e-01,1.243e-02
1.625e-01,1.375e-02
1.675e-01,1.522e-02
1.725e-01,1.686e-02
1.775e-01,1.866e-02
1.825e-01,2.066e-02
1.875e-01,2.287e-02
1.925e-01,2.529e-02
1.975e-01,2.794e-02
2.025e-01,3.083e-02
2.075e-01,3.398e-02
2.125e-01,3.739e-02
2.175e-01,4.107e-02
2.225e-01,4.505e-02
2.275e-01,4.933e-02
2.325e-01,5.393e-02
2.375e-01,5.886e-02
2.425e-01,6.414e-02
2.475e-01,6.978e-02
2.525e-01,7.581e-02
2.575e-01,8.223e-02
2.625e-01,8.907e-02
2.675e-01,9.634e-02
2.725e-01,1.041e-01
2.775e-01,1.122e-01
2.825e-01,1.209e-01
2.875e-01,1.301e-01
2.925e-01,1.398e-01
2.975e-01,1.501e-01
3.025e-01,1.610e-01
3.075e-01,1.725e-01
3.125e-01,1.846e-01
3.175e-01,1.973e-01
3.225e-01,2.108e-01
3.275e-01,2.249e-01
3.325e-01,2.398e-01
3.375e-01,2.555e-01
3.425e-01,2.719e-01
3.475e-01,2.892e-01
3.525e-01,3.074e-01
3.575e-01,3.264e-01
3.625e-01,3.464e-01
3.675e-01,3.673e-01
3.725e-01,3.893e-01
3.775e-01,4.122e-01
3.825e-01,4.363e-01
3.875e-01,4.614e-01
3.925e-01,4.877e-01
3.975e-01,5.151e-01
4.025e-01,5.438e-01
4.075e-01,5.736e-01
4.125e-01,6.048e-01
4.175e-01,6.373e-01
4.225e-01,6.711e-01
4.275e-01,7.063e-01
4.325e-01,7.428e-01
4.375e-01,7.808e-01
4.425e-01,8.203e-01
4.475e-01,8.611e-01
4.525e-01,9.035e-01
4.575e-01,9.473e-01
4.625e-01,9.925e-01
4.675e-01,1.039e+00
4.725e-01,1.087e+00
4.775e-01,1.137e+00
4.825e-01,1.188e+00
4.875e-01,1.240e+00
4.925e-01,1.293e+00
4.975e-01,1.348e+00
5.025e-01,1.403e+00
5.075e-01,1.460e+00
5.125e-01,1.517e+00
5.175e-01,1.575e+00
5.225e-01,1.634e+00
5.275e-01,1.693e+00
5.325e-01,1.752e+00
5.375e-01,1.812e+00
5.425e-01,1.871e+00
5.475e-01,1.930e+00
5.525e-01,1.989e+00
5.575e-01,2.047e+00
5.625e-01,2.104e+00
5.675e-01,2.160e+00
5.725e-01,2.215e+00
5.775e-01,2.268e+00
5.825e-01,2.320e+00
5.875e-01,2.369e+00
5.925e-01,2.417e+00
5.975e-01,2.462e+00
6.025e-01,2.505e+00
6.075e-01,2.545e+00
6.125e-01,2.582e+00
6.175e-01,2.617e+00
6.225e-01,2.648e+00
6.275e-01,2.676e+00
6.325e-01,2.701e+00
6.375e-01,2.722e+00
6.425e-01,2.739e+00
6.475e-01,2.754e+00
6.525e-01,2.764e+00
6.575e-01,2.771e+00
6.625e-01,2.774e+00
6.675e-01,2.774e+00
6.725e-01,2.770e+00
6.775e-01,2.762e+00
6.825e-01,2.751e+00
6.875e-01,2.736e+00
6.925e-01,2.718e+00
6.975e-01,2.697e+00
7.025e-01,2.673e+00
7.075e-01,2.645e+00
7.125e-01,2.615e+00
7.175e-01,2.582e+00
7.225e-01,2.546e+00
7.275e-01,2.508e+00
7.325e-01,2.467e+00
7.375e-01,2.425e+00
7.425e-01,2.380e+00
7.475e-01,2.334e+00
7.525e-01,2.286e+00
7.575e-01,2.236e+00
7.625e-01,2.185e+00
7.675e-01,2.133e+00
7.725e-01,2.080e+00
7.775e-01,2.026e+00
7.825e-01,1.972e+00
7.875e-01,1.917e+00
7.925e-01,1.862e+00
7.975e-01,1.806e+00
8.025e-01,1.751e+00
8.075e-01,1.696e+00
8.125e-01,1.640e+00
8.175e-01,1.585e+00
8.225e-01,1.531e+00
8.275e-01,1.477e+00
8.325e-01,1.424e+00
8.375e-01,1.371e+00
8.425e-01,1.319e+00
8.475e-01,1.268e+00
8.525e-01,1.218e+00
8.575e-01,1.169e+00
8.625e-01,1.121e+00
8.675e-01,1.074e+00
8.725e-01,1.029e+00
8.775e-01,9.842e-01
8.825e-01,9.409e-01
8.875e-01,8.988e-01
8.925e-01,8.579e-01
8.975e-01,8.183e-01
9.025e-01,7.800e-01
9.075e-01,7.429e-01
9.125e-01,7.071e-01
9.175e-01,6.725e-01
9.225e-01,6.392e-01
9.275e-01,6.071e-01
9.325e-01,5.763e-01
9.375e-01,5.467e-01
9.425e-01,5.182e-01
9.475e-01,4.910e-01
9.525e-01,4.649e-01
9.575e-01,4.399e-01
9.625e-01,4.159e-01
9.675e-01,3.931e-01
9.725e-01,3.713e-01
9.775e-01,3.505e-01
9.825e-01,3.307e-01
9.875e-01,3.118e-01
9.925e-01,2.939e-01
9.975e-01,2.768e-01
