transmittance,probability_density
2.500e-03,1.514e-57
7.500e-03,9.420e-26
1.250e-02,8.899e-16
1.750e-02,7.262e-11
2.250e-02,4.777e-08
2.750e-02,2.605e-06
3.250e-02,3.322e-05
3.750e-02,1.698e-04
4.250e-02,4.762e-04
4.750e-02,8.997e-04
5.250e-02,1.329e-03
5.750e-02,1.719e-03
6.250e-02,2.098e-03
6.750e-02,2.497e-03
7.250e-02,2.923e-03
7.750e-02,3.371e-03
8.250e-02,3.852e-03
8.750e-02,4.393e-03
9.250e-02,5.027e-03
9.750e-02,5.780e-03
1.025e-01,6.670e-03
1.075e-01,7.702e-03
1.125e-01,8.882e-03
1.175e-01,1.021e-02
1.225e-01,1.171e-02
1.275e-01,1.338e-02
1.325e-01,1.523e-02
1.375e-01,1.729e-02
1.425e-01,1.955e-02
1.475e-01,2.204e-02
1.525e-01,2.475e-02
1.575e-01,2.769e-02
1.625e-01,3.087e-02
1.675e-01,3.431e-02
1.725e-01,3.802e-02
1.775e-01,4.200e-02
1.825e-01,4.628e-02
1.875e-01,5.087e-02
1.925e-01,5.579e-02
1.975e-01,6.106e-02
2.025e-01,6.669e-02
2.075e-01,7.272e-02
2.125e-01,7.915e-02
2.175e-01,8.602e-02
2.225e-01,9.334e-02
2.275e-01,1.011e-01
2.325e-01,1.095e-01
2.375e-01,1.183e-01
2.425e-01,1.277e-01
2.475e-01,1.377e-01
2.525e-01,1.484e-01
2.575e-01,1.596e-01
2.625e-01,1.716e-01
2.675e-01,1.844e-01
2.725e-01,1.978e-01
2.775e-01,2.121e-01
2.825e-01,2.272e-01
2.875e-01,2.431e-01
2.925e-01,2.600e-01
2.975e-01,2.778e-01
3.025e-01,2.965e-01
3.075e-01,3.162e-01
3.125e-01,3.370e-01
3.175e-01,3.587e-01
3.225e-01,3.816e-01
3.275e-01,4.056e-01
3.325e-01,4.308e-01
3.375e-01,4.571e-01
3.425e-01,4.847e-01
3.475e-01,5.134e-01
3.525e-01,5.435e-01
3.575e-01,5.749e-01
3.625e-01,6.076e-01
3.675e-01,6.416e-01
3.725e-01,6.771e-01
3.775e-01,7.139e-01
3.825e-01,7.521e-01
3.875e-01,7.917e-01
3.925e-01,8.327e-01
3.975e-01,8.751e-01
4.025e-01,9.189e-01
4.075e-01,9.640e-01
4.125e-01,1.011e+00
4.175e-01,1.058e+00
4.225e-01,1.107e+00
4.275e-01,1.157e+00
4.325e-01,1.209e+00
4.375e-01,1.261e+00
4.425e-01,1.314e+00
4.475e-01,1.368e+00
4.525e-01,1.423e+00
4.575e-01,1.478e+00
4.625e-01,1.533e+00
4.675e-01,1.589e+00
4.725e-01,1.646e+00
4.775e-01,1.702e+00
4.825e-01,1.758e+00
4.875e-01,1.813e+00
4.925e-01,1.868e+00
4.975e-01,1.923e+00
5.025e-01,1.977e+00
5.075e-01,2.029e+00
5.125e-01,2.080e+00
5.175e-01,2.130e+00
5.225e-01,2.179e+00
5.275e-01,2.225e+00
5.325e-01,2.270e+00
5.375e-01,2.313e+00
5.425e-01,2.353e+00
5.475e-01,2.392e+00
5.525e-01,2.427e+00
5.575e-01,2.460e+00
5.625e-01,2.491e+00
5.675e-01,2.518e+00
5.725e-01,2.543e+00
5.775e-01,2.565e+00
5.825e-01,2.584e+00
5.875e-01,2.599e+00
5.925e-01,2.612e+00
5.975e-01,2.622e+00
6.025e-01,2.628e+00
6.075e-01,2.631e+00
6.125e-01,2.631e+00
6.175e-01,2.629e+00
6.225e-01,2.623e+00
6.275e-01,2.614e+00
6.325e-01,2.602e+00
6.375e-01,2.588e+00
6.425e-01,2.570e+00
6.475e-01,2.550e+00
6.525e-01,2.528e+00
6.575e-01,2.503e+00
6.625e-01,2.475e+00
6.675e-01,2.446e+00
6.725e-01,2.414e+00
6.775e-01,2.380e+00
6.825e-01,2.345e+00
6.875e-01,2.307e+00
6.925e-01,2.269e+00
6.975e-01,2.228e+00
7.025e-01,2.187e+00
7.075e-01,2.144e+00
7.125e-01,2.100e+00
7.175e-01,2.055e+00
7.225e-01,2.009e+00
7.275e-01,1.963e+00
7.325e-01,1.916e+00
7.375e-01,1.868e+00
7.425e-01,1.821e+00
7.475e-01,1.773e+00
7.525e-01,1.725e+00
7.575e-01,1.677e+00
7.625e-01,1.629e+00
7.675e-01,1.581e+00
7.725e-01,1.533e+00
7.775e-01,1.486e+00
7.825e-01,1.439e+00
7.875e-01,1.393e+00
7.925e-01,1.347e+00
7.975e-01,1.301e+00
8.025e-01,1.257e+00
8.075e-01,1.213e+00
8.125e-01,1.170e+00
8.175e-01,1.128e+00
8.225e-01,1.086e+00
8.275e-01,1.045e+00
8.325e-01,1.006e+00
8.375e-01,9.669e-01
8.425e-01,9.291e-01
8.475e-01,8.922e-01
8.525e-01,8.562e-01
8.575e-01,8.213e-01
8.625e-01,7.873e-01
8.675e-01,7.543e-01
8.725e-01,7.223e-01
8.775e-01,6.913e-01
8.825e-01,6.613e-01
8.875e-01,6.323e-01
8.925e-01,6.042e-01
8.975e-01,5.771e-01
9.025e-01,5.509e-01
9.075e-01,5.257e-01
9.125e-01,5.014e-01
9.175e-01,4.780e-01
9.225e-01,4.555e-01
9.275e-01,4.338e-01
9.325e-01,4.130e-01
9.375e-01,3.930e-01
9.425e-01,3.738e-01
9.475e-01,3.554e-01
9.525e-01,3.378e-01
9.575e-01,3.209e-01
9.625e-01,3.047e-01
9.675e-01,2.893e-01
9.725e-01,2.745e-01
9.775e-01,2.604e-01
9.825e-01,2.469e-01
9.875e-01,2.340e-01
9.925e-01,2.217e-01
9.975e-01,2.100e-01
