transmittance,probability_density
2.500e-03,1.155e-108
7.500e-03,1.329e-51
1.250e-02,1.280e-32
1.750e-02,9.886e-23
2.250e-02,1.059e-16
2.750e-02,1.018e-12
3.250e-02,5.753e-10
3.750e-02,5.139e-08
4.250e-02,1.289e-06
4.750e-02,1.301e-05
5.250e-02,6.712e-05
5.750e-02,2.087e-04
6.250e-02,4.409e-04
6.750e-02,6.929e-04
7.250e-02,8.709e-04
7.750e-02,9.330e-04
8.250e-02,9.102e-04
8.750e-02,8.737e-04
9.250e-02,8.929e-04
9.750e-02,1.011e-03
1.025e-01,1.239e-03
1.075e-01,1.567e-03
1.125e-01,1.969e-03
1.175e-01,2.418e-03
1.225e-01,2.895e-03
1.275e-01,3.396e-03
1.325e-01,3.932e-03
1.375e-01,4.528e-03
1.425e-01,5.215e-03
1.475e-01,6.023e-03
1.525e-01,6.974e-03
1.575e-01,8.078e-03
1.625e-01,9.331e-03
1.675e-01,1.072e-02
1.725e-01,1.223e-02
1.775e-01,1.383e-02
1.825e-01,1.551e-02
1.875e-01,1.725e-02
1.925e-01,1.906e-02
1.975e-01,2.094e-02
2.025e-01,2.290e-02
2.075e-01,2.498e-02
2.125e-01,2.720e-02
2.175e-01,2.960e-02
2.225e-01,3.219e-02
2.275e-01,3.502e-02
2.325e-01,3.812e-02
2.375e-01,4.150e-02
2.425e-01,4.519e-02
2.475e-01,4.920e-02
2.525e-01,5.355e-02
2.575e-01,5.826e-02
2.625e-01,6.332e-02
2.675e-01,6.877e-02
2.725e-01,7.459e-02
2.775e-01,8.080e-02
2.825e-01,8.742e-02
2.875e-01,9.445e-02
2.925e-01,1.019e-01
2.975e-01,1.098e-01
3.025e-01,1.181e-01
3.075e-01,1.270e-01
3.125e-01,1.363e-01
3.175e-01,1.461e-01
3.225e-01,1.564e-01
3.275e-01,1.673e-01
3.325e-01,1.787e-01
3.375e-01,1.908e-01
3.425e-01,2.034e-01
3.475e-01,2.167e-01
3.525e-01,2.307e-01
3.575e-01,2.453e-01
3.625e-01,2.607e-01
3.675e-01,2.769e-01
3.725e-01,2.938e-01
3.775e-01,3.116e-01
3.825e-01,3.302e-01
3.875e-01,3.497e-01
3.925e-01,3.702e-01
3.975e-01,3.916e-01
4.025e-01,4.141e-01
4.075e-01,4.376e-01
4.125e-01,4.622e-01
4.175e-01,4.879e-01
4.225e-01,5.148e-01
4.275e-01,5.429e-01
4.325e-01,5.723e-01
4.375e-01,6.029e-01
4.425e-01,6.349e-01
4.475e-01,6.683e-01
4.525e-01,7.030e-01
4.575e-01,7.393e-01
4.625e-01,7.770e-01
4.675e-01,8.162e-01
4.725e-01,8.569e-01
4.775e-01,8.991e-01
4.825e-01,9.430e-01
4.875e-01,9.884e-01
4.925e-01,1.035e+00
4.975e-01,1.084e+00
5.025e-01,1.134e+00
5.075e-01,1.185e+00
5.125e-01,1.238e+00
5.175e-01,1.293e+00
5.225e-01,1.348e+00
5.275e-01,1.405e+00
5.325e-01,1.464e+00
5.375e-01,1.523e+00
5.425e-01,1.583e+00
5.475e-01,1.644e+00
5.525e-01,1.706e+00
5.575e-01,1.768e+00
5.625e-01,1.830e+00
5.675e-01,1.893e+00
5.725e-01,1.955e+00
5.775e-01,2.017e+00
5.825e-01,2.079e+00
5.875e-01,2.140e+00
5.925e-01,2.200e+00
5.975e-01,2.259e+00
6.025e-01,2.316e+00
6.075e-01,2.372e+00
6.125e-01,2.425e+00
6.175e-01,2.477e+00
6.225e-01,2.526e+00
6.275e-01,2.573e+00
6.325e-01,2.617e+00
6.375e-01,2.658e+00
6.425e-01,2.696e+00
6.475e-01,2.730e+00
6.525e-01,2.761e+00
6.575e-01,2.789e+00
6.625e-01,2.812e+00
6.675e-01,2.832e+00
6.725e-01,2.848e+00
6.775e-01,2.860e+00
6.825e-01,2.867e+00
6.875e-01,2.871e+00
6.925e-01,2.871e+00
6.975e-01,2.866e+00
7.025e-01,2.858e+00
7.075e-01,2.846e+00
7.125e-01,2.830e+00
7.175e-01,2.810e+00
7.225e-01,2.786e+00
7.275e-01,2.759e+00
7.325e-01,2.728e+00
7.375e-01,2.694e+00
7.425e-01,2.658e+00
7.475e-01,2.618e+00
7.525e-01,2.575e+00
7.575e-01,2.530e+00
7.625e-01,2.482e+00
7.675e-01,2.433e+00
7.725e-01,2.381e+00
7.775e-01,2.328e+00
7.825e-01,2.273e+00
7.875e-01,2.217e+00
7.925e-01,2.159e+00
7.975e-01,2.101e+00
8.025e-01,2.041e+00
8.075e-01,1.982e+00
8.125e-01,1.921e+00
8.175e-01,1.861e+00
8.225e-01,1.800e+00
8.275e-01,1.740e+00
8.325e-01,1.680e+00
8.375e-01,1.620e+00
8.425e-01,1.560e+00
8.475e-01,1.502e+00
8.525e-01,1.444e+00
8.575e-01,1.387e+00
8.625e-01,1.330e+00
8.675e-01,1.275e+00
8.725e-01,1.221e+00
8.775e-01,1.168e+00
8.825e-01,1.117e+00
8.875e-01,1.066e+00
8.925e-01,1.018e+00
8.975e-01,9.700e-01
9.025e-01,9.238e-01
9.075e-01,8.791e-01
9.125e-01,8.358e-01
9.175e-01,7.940e-01
9.225e-01,7.537e-01
9.275e-01,7.148e-01
9.325e-01,6.774e-01
9.375e-01,6.414e-01
9.425e-01,6.069e-01
9.475e-01,5.738e-01
9.525e-01,5.421e-01
9.575e-01,5.117e-01
9.625e-01,4.827e-01
9.675e-01,4.550e-01
9.725e-01,4.286e-01
9.775e-01,4.035e-01
9.825e-01,3.795e-01
9.875e-01,3.567e-01
9.925e-01,3.351e-01
9.975e-01,3.146e-01
