transmittance,probability_density
2.500e-03,0.000e+00
7.500e-03,6.973e-181
1.250e-02,9.794e-123
1.750e-02,9.384e-91
2.250e-02,3.848e-70
2.750e-02,1.081e-55
3.250e-02,5.015e-45
3.750e-02,7.136e-37
4.250e-02,1.739e-30
4.750e-02,2.154e-25
5.250e-02,2.801e-21
5.750e-02,6.330e-18
6.250e-02,3.576e-15
6.750e-02,6.607e-13
7.250e-02,4.892e-11
7.750e-02,1.699e-09
8.250e-02,3.129e-08
8.750e-02,3.375e-07
9.250e-02,2.309e-06
9.750e-02,1.071e-05
1.025e-01,3.562e-05
1.075e-01,8.930e-05
1.125e-01,1.768e-04
1.175e-01,2.895e-04
1.225e-01,4.102e-04
1.275e-01,5.253e-04
1.325e-01,6.296e-04
1.375e-01,7.213e-04
1.425e-01,7.985e-04
1.475e-01,8.612e-04
1.525e-01,9.163e-04
1.575e-01,9.791e-04
1.625e-01,1.070e-03
1.675e-01,1.209e-03
1.725e-01,1.410e-03
1.775e-01,1.681e-03
1.825e-01,2.020e-03
1.875e-01,2.420e-03
1.925e-01,2.872e-03
1.975e-01,3.363e-03
2.025e-01,3.884e-03
2.075e-01,4.427e-03
2.125e-01,4.983e-03
2.175e-01,5.550e-03
2.225e-01,6.125e-03
2.275e-01,6.713e-03
2.325e-01,7.326e-03
2.375e-01,7.981e-03
2.425e-01,8.699e-03
2.475e-01,9.503e-03
2.525e-01,1.041e-02
2.575e-01,1.144e-02
2.625e-01,1.261e-02
2.675e-01,1.390e-02
2.725e-01,1.533e-02
2.775e-01,1.690e-02
2.825e-01,1.859e-02
2.875e-01,2.041e-02
2.925e-01,2.236e-02
2.975e-01,2.443e-02
3.025e-01,2.663e-02
3.075e-01,2.895e-02
3.125e-01,3.141e-02
3.175e-01,3.399e-02
3.225e-01,3.671e-02
3.275e-01,3.956e-02
3.325e-01,4.256e-02
3.375e-01,4.569e-02
3.425e-01,4.899e-02
3.475e-01,5.245e-02
3.525e-01,5.609e-02
3.575e-01,5.992e-02
3.625e-01,6.395e-02
3.675e-01,6.820e-02
3.725e-01,7.269e-02
3.775e-01,7.743e-02
3.825e-01,8.243e-02
3.875e-01,8.772e-02
3.925e-01,9.331e-02
3.975e-01,9.922e-02
4.025e-01,1.055e-01
4.075e-01,1.121e-01
4.125e-01,1.192e-01
4.175e-01,1.266e-01
4.225e-01,1.346e-01
4.275e-01,1.430e-01
4.325e-01,1.520e-01
4.375e-01,1.615e-01
4.425e-01,1.716e-01
4.475e-01,1.824e-01
4.525e-01,1.937e-01
4.575e-01,2.058e-01
4.625e-01,2.186e-01
4.675e-01,2.321e-01
4.725e-01,2.463e-01
4.775e-01,2.613e-01
4.825e-01,2.771e-01
4.875e-01,2.937e-01
4.925e-01,3.110e-01
4.975e-01,3.292e-01
5.025e-01,3.483e-01
5.075e-01,3.683e-01
5.125e-01,3.891e-01
5.175e-01,4.110e-01
5.225e-01,4.338e-01
5.275e-01,4.576e-01
5.325e-01,4.825e-01
5.375e-01,5.086e-01
5.425e-01,5.359e-01
5.475e-01,5.644e-01
5.525e-01,5.942e-01
5.575e-01,6.255e-01
5.625e-01,6.582e-01
5.675e-01,6.924e-01
5.725e-01,7.283e-01
5.775e-01,7.659e-01
5.825e-01,8.053e-01
5.875e-01,8.467e-01
5.925e-01,8.900e-01
5.975e-01,9.354e-01
6.025e-01,9.830e-01
6.075e-01,1.033e+00
6.125e-01,1.085e+00
6.175e-01,1.140e+00
6.225e-01,1.197e+00
6.275e-01,1.257e+00
6.325e-01,1.320e+00
6.375e-01,1.385e+00
6.425e-01,1.454e+00
6.475e-01,1.525e+00
6.525e-01,1.598e+00
6.575e-01,1.675e+00
6.625e-01,1.754e+00
6.675e-01,1.836e+00
6.725e-01,1.920e+00
6.775e-01,2.007e+00
6.825e-01,2.096e+00
6.875e-01,2.186e+00
6.925e-01,2.278e+00
6.975e-01,2.372e+00
7.025e-01,2.466e+00
7.075e-01,2.560e+00
7.125e-01,2.654e+00
7.175e-01,2.747e+00
7.225e-01,2.839e+00
7.275e-01,2.930e+00
7.325e-01,3.017e+00
7.375e-01,3.102e+00
7.425e-01,3.183e+00
7.475e-01,3.259e+00
7.525e-01,3.331e+00
7.575e-01,3.396e+00
7.625e-01,3.456e+00
7.675e-01,3.509e+00
7.725e-01,3.554e+00
7.775e-01,3.592e+00
7.825e-01,3.622e+00
7.875e-01,3.643e+00
7.925e-01,3.656e+00
7.975e-01,3.659e+00
8.025e-01,3.654e+00
8.075e-01,3.640e+00
8.125e-01,3.616e+00
8.175e-01,3.584e+00
8.225e-01,3.544e+00
8.275e-01,3.495e+00
8.325e-01,3.438e+00
8.375e-01,3.373e+00
8.425e-01,3.302e+00
8.475e-01,3.224e+00
8.525e-01,3.140e+00
8.575e-01,3.050e+00
8.625e-01,2.956e+00
8.675e-01,2.858e+00
8.725e-01,2.756e+00
8.775e-01,2.651e+00
8.825e-01,2.545e+00
8.875e-01,2.436e+00
8.925e-01,2.327e+00
8.975e-01,2.218e+00
9.025e-01,2.108e+00
9.075e-01,2.000e+00
9.125e-01,1.893e+00
9.175e-01,1.787e+00
9.225e-01,1.684e+00
9.275e-01,1.583e+00
9.325e-01,1.484e+00
9.375e-01,1.389e+00
9.425e-01,1.297e+00
9.475e-01,1.209e+00
9.525e-01,1.124e+00
9.575e-01,1.043e+00
9.625e-01,9.663e-01
9.675e-01,8.931e-01
9.725e-01,8.238e-01
9.775e-01,7.583e-01
9.825e-01,6.967e-01
9.875e-01,6.389e-01
9.925e-01,5.847e-01
9.975e-01,5.341e-01
