transmittance,probability_density
2.500e-03,7.950e-84
7.500e-03,4.015e-41
1.250e-02,8.525e-27
1.750e-02,2.823e-19
2.250e-02,1.187e-14
2.750e-02,1.439e-11
3.250e-02,2.062e-09
3.750e-02,7.366e-08
4.250e-02,1.016e-06
4.750e-02,7.156e-06
5.250e-02,3.108e-05
5.750e-02,9.535e-05
6.250e-02,2.278e-04
6.750e-02,4.542e-04
7.250e-02,7.902e-04
7.750e-02,1.234e-03
8.250e-02,1.759e-03
8.750e-02,2.323e-03
9.250e-02,2.880e-03
9.750e-02,3.399e-03
1.025e-01,3.881e-03
1.075e-01,4.353e-03
1.125e-01,4.864e-03
1.175e-01,5.473e-03
1.225e-01,6.230e-03
1.275e-01,7.177e-03
1.325e-01,8.338e-03
1.375e-01,9.726e-03
1.425e-01,1.134e-02
1.475e-01,1.319e-02
1.525e-01,1.525e-02
1.575e-01,1.752e-02
1.625e-01,2.001e-02
1.675e-01,2.270e-02
1.725e-01,2.561e-02
1.775e-01,2.873e-02
1.825e-01,3.208e-02
1.875e-01,3.567e-02
1.925e-01,3.951e-02
1.975e-01,4.362e-02
2.025e-01,4.801e-02
2.075e-01,5.270e-02
2.125e-01,5.773e-02
2.175e-01,6.309e-02
2.225e-01,6.883e-02
2.275e-01,7.496e-02
2.325e-01,8.150e-02
2.375e-01,8.848e-02
2.425e-01,9.591e-02
2.475e-01,1.038e-01
2.525e-01,1.122e-01
2.575e-01,1.211e-01
2.625e-01,1.306e-01
2.675e-01,1.406e-01
2.725e-01,1.512e-01
2.775e-01,1.624e-01
2.825e-01,1.742e-01
2.875e-01,1.867e-01
2.925e-01,1.998e-01
2.975e-01,2.136e-01
3.025e-01,2.281e-01
3.075e-01,2.433e-01
3.125e-01,2.593e-01
3.175e-01,2.761e-01
3.225e-01,2.938e-01
3.275e-01,3.122e-01
3.325e-01,3.316e-01
3.375e-01,3.519e-01
3.425e-01,3.731e-01
3.475e-01,3.954e-01
3.525e-01,4.187e-01
3.575e-01,4.431e-01
3.625e-01,4.686e-01
3.675e-01,4.953e-01
3.725e-01,5.231e-01
3.775e-01,5.522e-01
3.825e-01,5.826e-01
3.875e-01,6.144e-01
3.925e-01,6.474e-01
3.975e-01,6.819e-01
4.025e-01,7.177e-01
4.075e-01,7.550e-01
4.125e-01,7.937e-01
4.175e-01,8.338e-01
4.225e-01,8.754e-01
4.275e-01,9.184e-01
4.325e-01,9.629e-01
4.375e-01,1.009e+00
4.425e-01,1.056e+00
4.475e-01,1.105e+00
4.525e-01,1.154e+00
4.575e-01,1.206e+00
4.625e-01,1.258e+00
4.675e-01,1.311e+00
4.725e-01,1.365e+00
4.775e-01,1.420e+00
4.825e-01,1.476e+00
4.875e-01,1.533e+00
4.925e-01,1.589e+00
4.975e-01,1.647e+00
5.025e-01,1.704e+00
5.075e-01,1.761e+00
5.125e-01,1.819e+00
5.175e-01,1.875e+00
5.225e-01,1.932e+00
5.275e-01,1.987e+00
5.325e-01,2.042e+00
5.375e-01,2.096e+00
5.425e-01,2.148e+00
5.475e-01,2.199e+00
5.525e-01,2.248e+00
5.575e-01,2.295e+00
5.625e-01,2.340e+00
5.675e-01,2.384e+00
5.725e-01,2.424e+00
5.775e-01,2.463e+00
5.825e-01,2.498e+00
5.875e-01,2.531e+00
5.925e-01,2.561e+00
5.975e-01,2.588e+00
6.025e-01,2.612e+00
6.075e-01,2.633e+00
6.125e-01,2.651e+00
6.175e-01,2.665e+00
6.225e-01,2.676e+00
6.275e-01,2.684e+00
6.325e-01,2.688e+00
6.375e-01,2.689e+00
6.425e-01,2.687e+00
6.475e-01,2.681e+00
6.525e-01,2.673e+00
6.575e-01,2.661e+00
6.625e-01,2.646e+00
6.675e-01,2.628e+00
6.725e-01,2.607e+00
6.775e-01,2.584e+00
6.825e-01,2.558e+00
6.875e-01,2.529e+00
6.925e-01,2.498e+00
6.975e-01,2.464e+00
7.025e-01,2.428e+00
7.075e-01,2.391e+00
7.125e-01,2.351e+00
7.175e-01,2.310e+00
7.225e-01,2.267e+00
7.275e-01,2.222e+00
7.325e-01,2.177e+00
7.375e-01,2.130e+00
7.425e-01,2.082e+00
7.475e-01,2.033e+00
7.525e-01,1.984e+00
7.575e-01,1.934e+00
7.625e-01,1.884e+00
7.675e-01,1.833e+00
7.725e-01,1.782e+00
7.775e-01,1.731e+00
7.825e-01,1.679e+00
7.875e-01,1.628e+00
7.925e-01,1.578e+00
7.975e-01,1.527e+00
8.025e-01,1.477e+00
8.075e-01,1.428e+00
8.125e-01,1.379e+00
8.175e-01,1.331e+00
8.225e-01,1.283e+00
8.275e-01,1.236e+00
8.325e-01,1.190e+00
8.375e-01,1.145e+00
8.425e-01,1.101e+00
8.475e-01,1.058e+00
8.525e-01,1.016e+00
8.575e-01,9.743e-01
8.625e-01,9.341e-01
8.675e-01,8.950e-01
8.725e-01,8.570e-01
8.775e-01,8.201e-01
8.825e-01,7.842e-01
8.875e-01,7.495e-01
8.925e-01,7.159e-01
8.975e-01,6.833e-01
9.025e-01,6.519e-01
9.075e-01,6.216e-01
9.125e-01,5.923e-01
9.175e-01,5.640e-01
9.225e-01,5.369e-01
9.275e-01,5.107e-01
9.325e-01,4.856e-01
9.375e-01,4.615e-01
9.425e-01,4.383e-01
9.475e-01,4.161e-01
9.525e-01,3.948e-01
9.575e-01,3.744e-01
9.625e-01,3.549e-01
9.675e-01,3.363e-01
9.725e-01,3.184e-01
9.775e-01,3.014e-01
9.825e-01,2.852e-01
9.875e-01,2.697e-01
9.925e-01,2.549e-01
9.975e-01,2.409e-01
