transmittance,probability_density
2.500e-03,3.129e-240
7.500e-03,3.098e-130
1.250e-02,9.762e-91
1.750e-02,9.316e-69
2.250e-02,1.972e-54
2.750e-02,2.820e-44
3.250e-02,1.085e-36
3.750e-02,8.049e-31
4.250e-02,3.680e-26
4.750e-02,2.167e-22
5.250e-02,2.692e-19
5.750e-02,9.949e-17
6.250e-02,1.402e-14
6.750e-02,9.061e-13
7.250e-02,3.087e-11
7.750e-02,6.181e-10
8.250e-02,7.919e-09
8.750e-02,6.951e-08
9.250e-02,4.418e-07
9.750e-02,2.128e-06
1.025e-01,8.069e-06
1.075e-01,2.485e-05
1.125e-01,6.391e-05
1.175e-01,1.404e-04
1.225e-01,2.691e-04
1.275e-01,4.580e-04
1.325e-01,7.042e-04
1.375e-01,9.932e-04
1.425e-01,1.304e-03
1.475e-01,1.616e-03
1.525e-01,1.917e-03
1.575e-01,2.202e-03
1.625e-01,2.479e-03
1.675e-01,2.760e-03
1.725e-01,3.061e-03
1.775e-01,3.398e-03
1.825e-01,3.785e-03
1.875e-01,4.235e-03
1.925e-01,4.754e-03
1.975e-01,5.349e-03
2.025e-01,6.024e-03
2.075e-01,6.778e-03
2.125e-01,7.614e-03
2.175e-01,8.533e-03
2.225e-01,9.539e-03
2.275e-01,1.064e-02
2.325e-01,1.183e-02
2.375e-01,1.313e-02
2.425e-01,1.455e-02
2.475e-01,1.609e-02
2.525e-01,1.777e-02
2.575e-01,1.958e-02
2.625e-01,2.154e-02
2.675e-01,2.366e-02
2.725e-01,2.593e-02
2.775e-01,2.836e-02
2.825e-01,3.097e-02
2.875e-01,3.375e-02
2.925e-01,3.673e-02
2.975e-01,3.990e-02
3.025e-01,4.329e-02
3.075e-01,4.692e-02
3.125e-01,5.079e-02
3.175e-01,5.493e-02
3.225e-01,5.935e-02
3.275e-01,6.407e-02
3.325e-01,6.911e-02
3.375e-01,7.449e-02
3.425e-01,8.022e-02
3.475e-01,8.634e-02
3.525e-01,9.284e-02
3.575e-01,9.976e-02
3.625e-01,1.071e-01
3.675e-01,1.149e-01
3.725e-01,1.232e-01
3.775e-01,1.319e-01
3.825e-01,1.412e-01
3.875e-01,1.510e-01
3.925e-01,1.614e-01
3.975e-01,1.723e-01
4.025e-01,1.838e-01
4.075e-01,1.960e-01
4.125e-01,2.088e-01
4.175e-01,2.224e-01
4.225e-01,2.366e-01
4.275e-01,2.516e-01
4.325e-01,2.674e-01
4.375e-01,2.840e-01
4.425e-01,3.015e-01
4.475e-01,3.199e-01
4.525e-01,3.393e-01
4.575e-01,3.597e-01
4.625e-01,3.812e-01
4.675e-01,4.038e-01
4.725e-01,4.276e-01
4.775e-01,4.525e-01
4.825e-01,4.788e-01
4.875e-01,5.064e-01
4.925e-01,5.354e-01
4.975e-01,5.659e-01
5.025e-01,5.979e-01
5.075e-01,6.315e-01
5.125e-01,6.667e-01
5.175e-01,7.037e-01
5.225e-01,7.424e-01
5.275e-01,7.830e-01
5.325e-01,8.254e-01
5.375e-01,8.698e-01
5.425e-01,9.163e-01
5.475e-01,9.648e-01
5.525e-01,1.015e+00
5.575e-01,1.068e+00
5.625e-01,1.123e+00
5.675e-01,1.180e+00
5.725e-01,1.239e+00
5.775e-01,1.301e+00
5.825e-01,1.364e+00
5.875e-01,1.430e+00
5.925e-01,1.497e+00
5.975e-01,1.567e+00
6.025e-01,1.638e+00
6.075e-01,1.711e+00
6.125e-01,1.786e+00
6.175e-01,1.862e+00
6.225e-01,1.939e+00
6.275e-01,2.016e+00
6.325e-01,2.095e+00
6.375e-01,2.174e+00
6.425e-01,2.252e+00
6.475e-01,2.331e+00
6.525e-01,2.408e+00
6.575e-01,2.485e+00
6.625e-01,2.561e+00
6.675e-01,2.634e+00
6.725e-01,2.705e+00
6.775e-01,2.774e+00
6.825e-01,2.840e+00
6.875e-01,2.902e+00
6.925e-01,2.961e+00
6.975e-01,3.015e+00
7.025e-01,3.065e+00
7.075e-01,3.111e+00
7.125e-01,3.151e+00
7.175e-01,3.186e+00
7.225e-01,3.216e+00
7.275e-01,3.239e+00
7.325e-01,3.257e+00
7.375e-01,3.269e+00
7.425e-01,3.275e+00
7.475e-01,3.275e+00
7.525e-01,3.268e+00
7.575e-01,3.256e+00
7.625e-01,3.237e+00
7.675e-01,3.213e+00
7.725e-01,3.183e+00
7.775e-01,3.147e+00
7.825e-01,3.106e+00
7.875e-01,3.060e+00
7.925e-01,3.009e+00
7.975e-01,2.954e+00
8.025e-01,2.894e+00
8.075e-01,2.831e+00
8.125e-01,2.764e+00
8.175e-01,2.694e+00
8.225e-01,2.622e+00
8.275e-01,2.546e+00
8.325e-01,2.469e+00
8.375e-01,2.390e+00
8.425e-01,2.310e+00
8.475e-01,2.229e+00
8.525e-01,2.147e+00
8.575e-01,2.065e+00
8.625e-01,1.983e+00
8.675e-01,1.901e+00
8.725e-01,1.819e+00
8.775e-01,1.739e+00
8.825e-01,1.659e+00
8.875e-01,1.581e+00
8.925e-01,1.504e+00
8.975e-01,1.429e+00
9.025e-01,1.355e+00
9.075e-01,1.284e+00
9.125e-01,1.214e+00
9.175e-01,1.147e+00
9.225e-01,1.082e+00
9.275e-01,1.019e+00
9.325e-01,9.588e-01
9.375e-01,9.008e-01
9.425e-01,8.452e-01
9.475e-01,7.920e-01
9.525e-01,7.412e-01
9.575e-01,6.928e-01
9.625e-01,6.468e-01
9.675e-01,6.030e-01
9.725e-01,5.616e-01
9.775e-01,5.224e-01
9.825e-01,4.853e-01
9.875e-01,4.504e-01
9.925e-01,4.175e-01
9.975e-01,3.866e-01
