transmittance,probability_density
2.500e-03,0.000e+00
7.500e-03,1.078e-242
1.250e-02,1.217e-167
1.750e-02,6.246e-126
2.250e-02,8.847e-99
2.750e-02,1.475e-79
3.250e-02,3.208e-65
3.750e-02,3.848e-54
4.250e-02,2.321e-45
4.750e-02,2.858e-38
5.250e-02,1.833e-32
5.750e-02,1.178e-27
6.250e-02,1.214e-23
6.750e-02,2.846e-20
7.250e-02,1.981e-17
7.750e-02,5.025e-15
8.250e-02,5.464e-13
8.750e-02,2.899e-11
9.250e-02,8.340e-10
9.750e-02,1.418e-08
1.025e-01,1.532e-07
1.075e-01,1.117e-06
1.125e-01,5.788e-06
1.175e-01,2.228e-05
1.225e-01,6.621e-05
1.275e-01,1.572e-04
1.325e-01,3.074e-04
1.375e-01,5.088e-04
1.425e-01,7.316e-04
1.475e-01,9.357e-04
1.525e-01,1.089e-03
1.575e-01,1.178e-03
1.625e-01,1.210e-03
1.675e-01,1.210e-03
1.725e-01,1.207e-03
1.775e-01,1.225e-03
1.825e-01,1.281e-03
1.875e-01,1.375e-03
1.925e-01,1.502e-03
1.975e-01,1.648e-03
2.025e-01,1.808e-03
2.075e-01,1.983e-03
2.125e-01,2.181e-03
2.175e-01,2.418e-03
2.225e-01,2.707e-03
2.275e-01,3.062e-03
2.325e-01,3.491e-03
2.375e-01,3.996e-03
2.425e-01,4.575e-03
2.475e-01,5.226e-03
2.525e-01,5.943e-03
2.575e-01,6.724e-03
2.625e-01,7.570e-03
2.675e-01,8.483e-03
2.725e-01,9.473e-03
2.775e-01,1.055e-02
2.825e-01,1.173e-02
2.875e-01,1.302e-02
2.925e-01,1.444e-02
2.975e-01,1.599e-02
3.025e-01,1.768e-02
3.075e-01,1.950e-02
3.125e-01,2.146e-02
3.175e-01,2.354e-02
3.225e-01,2.573e-02
3.275e-01,2.803e-02
3.325e-01,3.042e-02
3.375e-01,3.290e-02
3.425e-01,3.547e-02
3.475e-01,3.814e-02
3.525e-01,4.092e-02
3.575e-01,4.381e-02
3.625e-01,4.684e-02
3.675e-01,5.002e-02
3.725e-01,5.337e-02
3.775e-01,5.693e-02
3.825e-01,6.072e-02
3.875e-01,6.476e-02
3.925e-01,6.907e-02
3.975e-01,7.369e-02
4.025e-01,7.865e-02
4.075e-01,8.396e-02
4.125e-01,8.965e-02
4.175e-01,9.575e-02
4.225e-01,1.023e-01
4.275e-01,1.092e-01
4.325e-01,1.166e-01
4.375e-01,1.245e-01
4.425e-01,1.329e-01
4.475e-01,1.417e-01
4.525e-01,1.510e-01
4.575e-01,1.608e-01
4.625e-01,1.711e-01
4.675e-01,1.819e-01
4.725e-01,1.932e-01
4.775e-01,2.050e-01
4.825e-01,2.173e-01
4.875e-01,2.301e-01
4.925e-01,2.435e-01
4.975e-01,2.575e-01
5.025e-01,2.721e-01
5.075e-01,2.875e-01
5.125e-01,3.035e-01
5.175e-01,3.204e-01
5.225e-01,3.380e-01
5.275e-01,3.566e-01
5.325e-01,3.762e-01
5.375e-01,3.968e-01
5.425e-01,4.186e-01
5.475e-01,4.415e-01
5.525e-01,4.657e-01
5.575e-01,4.912e-01
5.625e-01,5.181e-01
5.675e-01,5.465e-01
5.725e-01,5.764e-01
5.775e-01,6.080e-01
5.825e-01,6.412e-01
5.875e-01,6.762e-01
5.925e-01,7.131e-01
5.975e-01,7.518e-01
6.025e-01,7.926e-01
6.075e-01,8.355e-01
6.125e-01,8.805e-01
6.175e-01,9.278e-01
6.225e-01,9.774e-01
6.275e-01,1.030e+00
6.325e-01,1.084e+00
6.375e-01,1.142e+00
6.425e-01,1.202e+00
6.475e-01,1.265e+00
6.525e-01,1.330e+00
6.575e-01,1.399e+00
6.625e-01,1.471e+00
6.675e-01,1.547e+00
6.725e-01,1.625e+00
6.775e-01,1.707e+00
6.825e-01,1.792e+00
6.875e-01,1.880e+00
6.925e-01,1.971e+00
6.975e-01,2.065e+00
7.025e-01,2.161e+00
7.075e-01,2.261e+00
7.125e-01,2.362e+00
7.175e-01,2.465e+00
7.225e-01,2.570e+00
7.275e-01,2.675e+00
7.325e-01,2.780e+00
7.375e-01,2.885e+00
7.425e-01,2.990e+00
7.475e-01,3.092e+00
7.525e-01,3.192e+00
7.575e-01,3.288e+00
7.625e-01,3.380e+00
7.675e-01,3.467e+00
7.725e-01,3.548e+00
7.775e-01,3.623e+00
7.825e-01,3.690e+00
7.875e-01,3.749e+00
7.925e-01,3.799e+00
7.975e-01,3.839e+00
8.025e-01,3.869e+00
8.075e-01,3.889e+00
8.125e-01,3.898e+00
8.175e-01,3.897e+00
8.225e-01,3.884e+00
8.275e-01,3.859e+00
8.325e-01,3.824e+00
8.375e-01,3.779e+00
8.425e-01,3.722e+00
8.475e-01,3.656e+00
8.525e-01,3.581e+00
8.575e-01,3.497e+00
8.625e-01,3.404e+00
8.675e-01,3.304e+00
8.725e-01,3.198e+00
8.775e-01,3.087e+00
8.825e-01,2.970e+00
8.875e-01,2.849e+00
8.925e-01,2.726e+00
8.975e-01,2.600e+00
9.025e-01,2.474e+00
9.075e-01,2.346e+00
9.125e-01,2.219e+00
9.175e-01,2.093e+00
9.225e-01,1.969e+00
9.275e-01,1.847e+00
9.325e-01,1.728e+00
9.375e-01,1.612e+00
9.425e-01,1.500e+00
9.475e-01,1.392e+00
9.525e-01,1.289e+00
9.575e-01,1.190e+00
9.625e-01,1.095e+00
9.675e-01,1.006e+00
9.725e-01,9.220e-01
9.775e-01,8.427e-01
9.825e-01,7.684e-01
9.875e-01,6.989e-01
9.925e-01,6.342e-01
9.975e-01,5.741e-01
