transmittance,probability_density
1.300e-03,5.770e-02
3.900e-03,3.269e-01
6.500e-03,8.000e-01
9.099e-03,1.246e+00
1.170e-02,2.019e+00
1.430e-02,2.581e+00
1.690e-02,3.189e+00
1.950e-02,3.566e+00
2.210e-02,4.516e+00
2.470e-02,5.273e+00
2.730e-02,5.800e+00
2.990e-02,6.570e+00
3.250e-02,7.008e+00
3.510e-02,7.758e+00
3.770e-02,8.420e+00
4.030e-02,9.047e+00
4.290e-02,9.739e+00
4.550e-02,1.029e+01
4.810e-02,1.111e+01
5.070e-02,1.208e+01
5.330e-02,1.225e+01
5.590e-02,1.285e+01
5.850e-02,1.337e+01
6.110e-02,1.399e+01
6.370e-02,1.449e+01
6.630e-02,1.486e+01
6.890e-02,1.490e+01
7.150e-02,1.557e+01
7.410e-02,1.550e+01
7.670e-02,1.527e+01
7.930e-02,1.509e+01
8.190e-02,1.432e+01
8.450e-02,1.419e+01
8.709e-02,1.280e+01
8.969e-02,1.153e+01
9.229e-02,1.087e+01
9.489e-02,9.512e+00
9.749e-02,8.277e+00
1.001e-01,7.097e+00
1.027e-01,5.785e+00
1.053e-01,4.970e+00
1.079e-01,3.966e+00
1.105e-01,2.946e+00
1.131e-01,2.496e+00
1.157e-01,1.827e+00
1.183e-01,1.258e+00
1.209e-01,1.008e+00
1.235e-01,6.385e-01
1.261e-01,5.308e-01
1.287e-01,3.654e-01
1.313e-01,2.577e-01
1.339e-01,1.577e-01
1.365e-01,1.039e-01
1.391e-01,7.693e-02
1.417e-01,4.616e-02
1.443e-01,3.846e-02
1.469e-01,7.693e-03
1.495e-01,7.693e-03
1.521e-01,0.000e+00
1.547e-01,0.000e+00
1.573e-01,3.846e-03
1.599e-01,0.000e+00
1.625e-01,3.846e-03
1.651e-01,0.000e+00
1.677e-01,0.000e+00
1.703e-01,0.000e+00
1.729e-01,0.000e+00
1.755e-01,0.000e+00
1.781e-01,0.000e+00
1.807e-01,0.000e+00
1.833e-01,0.000e+00
1.859e-01,0.000e+00
1.885e-01,0.000e+00
1.911e-01,0.000e+00
1.937e-01,0.000e+00
1.963e-01,0.000e+00
1.989e-01,0.000e+00
2.015e-01,0.000e+00
2.041e-01,0.000e+00
2.067e-01,0.000e+00
2.093e-01,0.000e+00
2.119e-01,0.000e+00
2.145e-01,0.000e+00
2.171e-01,0.000e+00
2.197e-01,0.000e+00
2.223e-01,0.000e+00
2.249e-01,0.000e+00
2.275e-01,0.000e+00
2.301e-01,0.000e+00
2.327e-01,0.000e+00
2.353e-01,0.000e+00
2.379e-01,0.000e+00
2.405e-01,0.000e+00
2.431e-01,0.000e+00
2.457e-01,0.000e+00
2.483e-01,0.000e+00
2.509e-01,0.000e+00
2.535e-01,0.000e+00
2.561e-01,0.000e+00
2.587e-01,0.000e+00
2.613e-01,0.000e+00
2.639e-01,0.000e+00
2.665e-01,0.000e+00
2.691e-01,0.000e+00
2.717e-01,0.000e+00
2.743e-01,0.000e+00
2.769e-01,0.000e+00
2.795e-01,0.000e+00
2.821e-01,0.000e+00
2.847e-01,0.000e+00
2.873e-01,0.000e+00
2.899e-01,0.000e+00
2.925e-01,0.000e+00
2.951e-01,0.000e+00
2.977e-01,0.000e+00
3.003e-01,0.000e+00
3.029e-01,0.000e+00
3.055e-01,0.000e+00
3.081e-01,0.000e+00
3.107e-01,0.000e+00
3.133e-01,0.000e+00
3.159e-01,0.000e+00
3.185e-01,0.000e+00
3.211e-01,0.000e+00
3.237e-01,0.000e+00
3.263e-01,0.000e+00
3.289e-01,0.000e+00
3.315e-01,0.000e+00
3.341e-01,0.000e+00
3.367e-01,0.000e+00
3.393e-01,0.000e+00
3.419e-01,0.000e+00
3.445e-01,0.000e+00
3.471e-01,0.000e+00
3.497e-01,0.000e+00
3.523e-01,0.000e+00
3.549e-01,0.000e+00
3.575e-01,0.000e+00
3.601e-01,0.000e+00
3.627e-01,0.000e+00
3.653e-01,0.000e+00
3.679e-01,0.000e+00
3.705e-01,0.000e+00
3.731e-01,0.000e+00
3.757e-01,0.000e+00
3.783e-01,0.000e+00
3.809e-01,0.000e+00
3.835e-01,0.000e+00
3.861e-01,0.000e+00
3.887e-01,0.000e+00
3.913e-01,0.000e+00
3.939e-01,0.000e+00
3.965e-01,0.000e+00
3.991e-01,0.000e+00
4.017e-01,0.000e+00
4.043e-01,0.000e+00
4.069e-01,0.000e+00
4.095e-01,0.000e+00
4.121e-01,0.000e+00
4.147e-01,0.000e+00
4.173e-01,0.000e+00
4.199e-01,0.000e+00
4.225e-01,0.000e+00
4.251e-01,0.000e+00
4.277e-01,0.000e+00
4.303e-01,0.000e+00
4.329e-01,0.000e+00
4.355e-01,0.000e+00
4.381e-01,0.000e+00
4.407e-01,0.000e+00
4.433e-01,0.000e+00
4.459e-01,0.000e+00
4.485e-01,0.000e+00
4.511e-01,0.000e+00
4.537e-01,0.000e+00
4.563e-01,0.000e+00
4.589e-01,0.000e+00
4.615e-01,0.000e+00
4.641e-01,0.000e+00
4.667e-01,0.000e+00
4.693e-01,0.000e+00
4.719e-01,0.000e+00
4.745e-01,0.000e+00
4.771e-01,0.000e+00
4.797e-01,0.000e+00
4.823e-01,0.000e+00
4.849e-01,0.000e+00
4.875e-01,0.000e+00
4.901e-01,0.000e+00
4.927e-01,0.000e+00
4.953e-01,0.000e+00
4.979e-01,0.000e+00
5.005e-01,0.000e+00
5.031e-01,0.000e+00
5.057e-01,0.000e+00
5.083e-01,0.000e+00
5.109e-01,0.000e+00
5.135e-01,0.000e+00
5.161e-01,0.000e+00
5.187e-01,0.000e+00
