transmittance,probability_density
6.600e-04,2.652e-01
1.980e-03,1.667e+00
3.300e-03,3.326e+00
4.620e-03,5.848e+00
5.940e-03,7.674e+00
7.260e-03,9.462e+00
8.580e-03,1.259e+01
9.900e-03,1.415e+01
1.122e-02,1.664e+01
1.254e-02,1.835e+01
1.386e-02,2.042e+01
1.518e-02,2.292e+01
1.650e-02,2.447e+01
1.782e-02,2.682e+01
1.914e-02,3.003e+01
2.046e-02,3.089e+01
2.178e-02,3.275e+01
2.310e-02,3.408e+01
2.442e-02,3.617e+01
2.574e-02,3.705e+01
2.706e-02,3.781e+01
2.838e-02,3.899e+01
2.970e-02,3.805e+01
3.102e-02,3.696e+01
3.234e-02,3.573e+01
3.366e-02,3.310e+01
3.498e-02,2.923e+01
3.630e-02,2.644e+01
3.762e-02,2.209e+01
3.894e-02,1.854e+01
4.026e-02,1.452e+01
4.158e-02,1.184e+01
4.290e-02,8.682e+00
4.422e-02,6.545e+00
4.554e-02,4.538e+00
4.686e-02,3.136e+00
4.818e-02,2.068e+00
4.950e-02,1.242e+00
5.082e-02,1.008e+00
5.214e-02,6.061e-01
5.346e-02,3.712e-01
5.478e-02,1.970e-01
5.610e-02,1.591e-01
5.742e-02,7.576e-02
5.874e-02,1.515e-02
6.006e-02,1.515e-02
6.138e-02,0.000e+00
6.270e-02,7.576e-03
6.402e-02,0.000e+00
6.534e-02,7.576e-03
6.666e-02,0.000e+00
6.798e-02,0.000e+00
6.930e-02,0.000e+00
7.062e-02,0.000e+00
7.194e-02,0.000e+00
7.326e-02,0.000e+00
7.458e-02,0.000e+00
7.590e-02,0.000e+00
7.722e-02,0.000e+00
7.854e-02,0.000e+00
7.986e-02,0.000e+00
8.118e-02,0.000e+00
8.250e-02,0.000e+00
8.382e-02,0.000e+00
8.514e-02,0.000e+00
8.646e-02,0.000e+00
8.778e-02,0.000e+00
8.910e-02,0.000e+00
9.042e-02,0.000e+00
9.174e-02,0.000e+00
9.306e-02,0.000e+00
9.438e-02,0.000e+00
9.570e-02,0.000e+00
9.702e-02,0.000e+00
9.834e-02,0.000e+00
9.966e-02,0.000e+00
1.010e-01,0.000e+00
1.023e-01,0.000e+00
1.036e-01,0.000e+00
1.049e-01,0.000e+00
1.063e-01,0.000e+00
1.076e-01,0.000e+00
1.089e-01,0.000e+00
1.102e-01,0.000e+00
1.115e-01,0.000e+00
1.129e-01,0.000e+00
1.142e-01,0.000e+00
1.155e-01,0.000e+00
1.168e-01,0.000e+00
1.181e-01,0.000e+00
1.195e-01,0.000e+00
1.208e-01,0.000e+00
1.221e-01,0.000e+00
1.234e-01,0.000e+00
1.247e-01,0.000e+00
1.261e-01,0.000e+00
1.274e-01,0.000e+00
1.287e-01,0.000e+00
1.300e-01,0.000e+00
1.313e-01,0.000e+00
1.327e-01,0.000e+00
1.340e-01,0.000e+00
1.353e-01,0.000e+00
1.366e-01,0.000e+00
1.379e-01,0.000e+00
1.393e-01,0.000e+00
1.406e-01,0.000e+00
1.419e-01,0.000e+00
1.432e-01,0.000e+00
1.445e-01,0.000e+00
1.459e-01,0.000e+00
1.472e-01,0.000e+00
1.485e-01,0.000e+00
1.498e-01,0.000e+00
1.511e-01,0.000e+00
1.525e-01,0.000e+00
1.538e-01,0.000e+00
1.551e-01,0.000e+00
1.564e-01,0.000e+00
1.577e-01,0.000e+00
1.591e-01,0.000e+00
1.604e-01,0.000e+00
1.617e-01,0.000e+00
1.630e-01,0.000e+00
1.643e-01,0.000e+00
1.657e-01,0.000e+00
1.670e-01,0.000e+00
1.683e-01,0.000e+00
1.696e-01,0.000e+00
1.709e-01,0.000e+00
1.723e-01,0.000e+00
1.736e-01,0.000e+00
1.749e-01,0.000e+00
1.762e-01,0.000e+00
1.775e-01,0.000e+00
1.789e-01,0.000e+00
1.802e-01,0.000e+00
1.815e-01,0.000e+00
1.828e-01,0.000e+00
1.841e-01,0.000e+00
1.855e-01,0.000e+00
1.868e-01,0.000e+00
1.881e-01,0.000e+00
1.894e-01,0.000e+00
1.907e-01,0.000e+00
1.921e-01,0.000e+00
1.934e-01,0.000e+00
1.947e-01,0.000e+00
1.960e-01,0.000e+00
1.973e-01,0.000e+00
1.987e-01,0.000e+00
2.000e-01,0.000e+00
2.013e-01,0.000e+00
2.026e-01,0.000e+00
2.039e-01,0.000e+00
2.053e-01,0.000e+00
2.066e-01,0.000e+00
2.079e-01,0.000e+00
2.092e-01,0.000e+00
2.105e-01,0.000e+00
2.119e-01,0.000e+00
2.132e-01,0.000e+00
2.145e-01,0.000e+00
2.158e-01,0.000e+00
2.171e-01,0.000e+00
2.185e-01,0.000e+00
2.198e-01,0.000e+00
2.211e-01,0.000e+00
2.224e-01,0.000e+00
2.237e-01,0.000e+00
2.251e-01,0.000e+00
2.264e-01,0.000e+00
2.277e-01,0.000e+00
2.290e-01,0.000e+00
2.303e-01,0.000e+00
2.317e-01,0.000e+00
2.330e-01,0.000e+00
2.343e-01,0.000e+00
2.356e-01,0.000e+00
2.369e-01,0.000e+00
2.383e-01,0.000e+00
2.396e-01,0.000e+00
2.409e-01,0.000e+00
2.422e-01,0.000e+00
2.435e-01,0.000e+00
2.449e-01,0.000e+00
2.462e-01,0.000e+00
2.475e-01,0.000e+00
2.488e-01,0.000e+00
2.501e-01,0.000e+00
2.515e-01,0.000e+00
2.528e-01,0.000e+00
2.541e-01,0.000e+00
2.554e-01,0.000e+00
2.567e-01,0.000e+00
2.581e-01,0.000e+00
2.594e-01,0.000e+00
2.607e-01,0.000e+00
2.620e-01,0.000e+00
2.633e-01,0.000e+00
