transmittance,probability_density
2.192e-03,7.139e-06
6.576e-03,9.577e-03
1.096e-02,6.135e-02
1.534e-02,1.365e-01
1.973e-02,2.101e-01
2.411e-02,2.762e-01
2.850e-02,3.359e-01
3.288e-02,3.909e-01
3.726e-02,4.418e-01
4.165e-02,4.889e-01
4.603e-02,5.318e-01
5.042e-02,5.705e-01
5.480e-02,6.050e-01
5.918e-02,6.355e-01
6.357e-02,6.622e-01
6.795e-02,6.857e-01
7.234e-02,7.062e-01
7.672e-02,7.243e-01
8.110e-02,7.404e-01
8.549e-02,7.550e-01
8.987e-02,7.683e-01
9.426e-02,7.809e-01
9.864e-02,7.929e-01
1.030e-01,8.046e-01
1.074e-01,8.163e-01
1.118e-01,8.280e-01
1.162e-01,8.400e-01
1.206e-01,8.523e-01
1.249e-01,8.649e-01
1.293e-01,8.778e-01
1.337e-01,8.912e-01
1.381e-01,9.049e-01
1.425e-01,9.189e-01
1.469e-01,9.332e-01
1.512e-01,9.478e-01
1.556e-01,9.625e-01
1.600e-01,9.774e-01
1.644e-01,9.925e-01
1.688e-01,1.008e+00
1.732e-01,1.023e+00
1.776e-01,1.038e+00
1.819e-01,1.053e+00
1.863e-01,1.069e+00
1.907e-01,1.084e+00
1.951e-01,1.099e+00
1.995e-01,1.114e+00
2.039e-01,1.129e+00
2.082e-01,1.144e+00
2.126e-01,1.159e+00
2.170e-01,1.174e+00
2.214e-01,1.189e+00
2.258e-01,1.204e+00
2.302e-01,1.219e+00
2.345e-01,1.234e+00
2.389e-01,1.249e+00
2.433e-01,1.264e+00
2.477e-01,1.280e+00
2.521e-01,1.295e+00
2.565e-01,1.310e+00
2.609e-01,1.325e+00
2.652e-01,1.341e+00
2.696e-01,1.357e+00
2.740e-01,1.373e+00
2.784e-01,1.389e+00
2.828e-01,1.405e+00
2.872e-01,1.422e+00
2.915e-01,1.439e+00
2.959e-01,1.456e+00
3.003e-01,1.474e+00
3.047e-01,1.492e+00
3.091e-01,1.510e+00
3.135e-01,1.529e+00
3.178e-01,1.549e+00
3.222e-01,1.569e+00
3.266e-01,1.589e+00
3.310e-01,1.610e+00
3.354e-01,1.632e+00
3.398e-01,1.655e+00
3.441e-01,1.678e+00
3.485e-01,1.702e+00
3.529e-01,1.726e+00
3.573e-01,1.752e+00
3.617e-01,1.778e+00
3.661e-01,1.804e+00
3.705e-01,1.832e+00
3.748e-01,1.860e+00
3.792e-01,1.888e+00
3.836e-01,1.917e+00
3.880e-01,1.946e+00
3.924e-01,1.976e+00
3.968e-01,2.006e+00
4.011e-01,2.036e+00
4.055e-01,2.066e+00
4.099e-01,2.096e+00
4.143e-01,2.125e+00
4.187e-01,2.155e+00
4.231e-01,2.183e+00
4.274e-01,2.211e+00
4.318e-01,2.237e+00
4.362e-01,2.263e+00
4.406e-01,2.287e+00
4.450e-01,2.310e+00
4.494e-01,2.331e+00
4.537e-01,2.350e+00
4.581e-01,2.367e+00
4.625e-01,2.381e+00
4.669e-01,2.393e+00
4.713e-01,2.403e+00
4.757e-01,2.410e+00
4.801e-01,2.414e+00
4.844e-01,2.415e+00
4.888e-01,2.414e+00
4.932e-01,2.409e+00
4.976e-01,2.401e+00
5.020e-01,2.390e+00
5.064e-01,2.375e+00
5.107e-01,2.358e+00
5.151e-01,2.337e+00
5.195e-01,2.314e+00
5.239e-01,2.287e+00
5.283e-01,2.258e+00
5.327e-01,2.226e+00
5.370e-01,2.191e+00
5.414e-01,2.153e+00
5.458e-01,2.114e+00
5.502e-01,2.072e+00
5.546e-01,2.028e+00
5.590e-01,1.982e+00
5.634e-01,1.934e+00
5.677e-01,1.885e+00
5.721e-01,1.834e+00
5.765e-01,1.783e+00
5.809e-01,1.730e+00
5.853e-01,1.677e+00
5.897e-01,1.623e+00
5.940e-01,1.569e+00
5.984e-01,1.515e+00
6.028e-01,1.460e+00
6.072e-01,1.406e+00
6.116e-01,1.352e+00
6.160e-01,1.298e+00
6.203e-01,1.245e+00
6.247e-01,1.193e+00
6.291e-01,1.141e+00
6.335e-01,1.091e+00
6.379e-01,1.041e+00
6.423e-01,9.925e-01
6.466e-01,9.451e-01
6.510e-01,8.989e-01
6.554e-01,8.541e-01
6.598e-01,8.105e-01
6.642e-01,7.684e-01
6.686e-01,7.277e-01
6.730e-01,6.884e-01
6.773e-01,6.505e-01
6.817e-01,6.141e-01
6.861e-01,5.791e-01
6.905e-01,5.456e-01
6.949e-01,5.136e-01
6.993e-01,4.829e-01
7.036e-01,4.537e-01
7.080e-01,4.258e-01
7.124e-01,3.993e-01
7.168e-01,3.741e-01
7.212e-01,3.501e-01
7.256e-01,3.275e-01
7.299e-01,3.060e-01
7.343e-01,2.857e-01
7.387e-01,2.665e-01
7.431e-01,2.484e-01
7.475e-01,2.314e-01
7.519e-01,2.154e-01
7.562e-01,2.003e-01
7.606e-01,1.861e-01
7.650e-01,1.728e-01
7.694e-01,1.604e-01
7.738e-01,1.487e-01
7.782e-01,1.378e-01
7.826e-01,1.276e-01
7.869e-01,1.181e-01
7.913e-01,1.092e-01
7.957e-01,1.009e-01
8.001e-01,9.321e-02
8.045e-01,8.603e-02
8.089e-01,7.936e-02
8.132e-01,7.317e-02
8.176e-01,6.742e-02
8.220e-01,6.208e-02
8.264e-01,5.714e-02
8.308e-01,5.256e-02
8.352e-01,4.832e-02
8.395e-01,4.440e-02
8.439e-01,4.078e-02
8.483e-01,3.743e-02
8.527e-01,3.434e-02
8.571e-01,3.149e-02
8.615e-01,2.887e-02
8.658e-01,2.645e-02
8.702e-01,2.422e-02
8.746e-01,2.217e-02
