transmittance,probability_density
2.500e-03,5.201e-57
7.500e-03,2.193e-33
1.250e-02,1.080e-24
1.750e-02,9.203e-20
2.250e-02,1.716e-16
2.750e-02,3.920e-14
3.250e-02,2.429e-12
3.750e-02,6.266e-11
4.250e-02,8.669e-10
4.750e-02,7.561e-09
5.250e-02,4.635e-08
5.750e-02,2.156e-07
6.250e-02,8.036e-07
6.750e-02,2.502e-06
7.250e-02,6.716e-06
7.750e-02,1.592e-05
8.250e-02,3.400e-05
8.750e-02,6.642e-05
9.250e-02,1.202e-04
9.750e-02,2.036e-04
1.025e-01,3.257e-04
1.075e-01,4.955e-04
1.125e-01,7.214e-04
1.175e-01,1.010e-03
1.225e-01,1.367e-03
1.275e-01,1.794e-03
1.325e-01,2.290e-03
1.375e-01,2.852e-03
1.425e-01,3.474e-03
1.475e-01,4.148e-03
1.525e-01,4.863e-03
1.575e-01,5.609e-03
1.625e-01,6.371e-03
1.675e-01,7.139e-03
1.725e-01,7.901e-03
1.775e-01,8.645e-03
1.825e-01,9.363e-03
1.875e-01,1.005e-02
1.925e-01,1.069e-02
1.975e-01,1.130e-02
2.025e-01,1.186e-02
2.075e-01,1.239e-02
2.125e-01,1.288e-02
2.175e-01,1.334e-02
2.225e-01,1.378e-02
2.275e-01,1.420e-02
2.325e-01,1.463e-02
2.375e-01,1.506e-02
2.425e-01,1.551e-02
2.475e-01,1.598e-02
2.525e-01,1.649e-02
2.575e-01,1.705e-02
2.625e-01,1.767e-02
2.675e-01,1.834e-02
2.725e-01,1.909e-02
2.775e-01,1.991e-02
2.825e-01,2.080e-02
2.875e-01,2.177e-02
2.925e-01,2.281e-02
2.975e-01,2.393e-02
3.025e-01,2.513e-02
3.075e-01,2.639e-02
3.125e-01,2.771e-02
3.175e-01,2.908e-02
3.225e-01,3.051e-02
3.275e-01,3.197e-02
3.325e-01,3.347e-02
3.375e-01,3.499e-02
3.425e-01,3.653e-02
3.475e-01,3.809e-02
3.525e-01,3.966e-02
3.575e-01,4.124e-02
3.625e-01,4.282e-02
3.675e-01,4.442e-02
3.725e-01,4.603e-02
3.775e-01,4.766e-02
3.825e-01,4.932e-02
3.875e-01,5.103e-02
3.925e-01,5.278e-02
3.975e-01,5.460e-02
4.025e-01,5.649e-02
4.075e-01,5.848e-02
4.125e-01,6.058e-02
4.175e-01,6.281e-02
4.225e-01,6.518e-02
4.275e-01,6.771e-02
4.325e-01,7.042e-02
4.375e-01,7.331e-02
4.425e-01,7.640e-02
4.475e-01,7.971e-02
4.525e-01,8.324e-02
4.575e-01,8.700e-02
4.625e-01,9.101e-02
4.675e-01,9.526e-02
4.725e-01,9.977e-02
4.775e-01,1.045e-01
4.825e-01,1.096e-01
4.875e-01,1.148e-01
4.925e-01,1.204e-01
4.975e-01,1.262e-01
5.025e-01,1.323e-01
5.075e-01,1.387e-01
5.125e-01,1.454e-01
5.175e-01,1.523e-01
5.225e-01,1.596e-01
5.275e-01,1.671e-01
5.325e-01,1.750e-01
5.375e-01,1.832e-01
5.425e-01,1.917e-01
5.475e-01,2.006e-01
5.525e-01,2.098e-01
5.575e-01,2.195e-01
5.625e-01,2.296e-01
5.675e-01,2.401e-01
5.725e-01,2.511e-01
5.775e-01,2.626e-01
5.825e-01,2.748e-01
5.875e-01,2.875e-01
5.925e-01,3.009e-01
5.975e-01,3.151e-01
6.025e-01,3.301e-01
6.075e-01,3.460e-01
6.125e-01,3.630e-01
6.175e-01,3.811e-01
6.225e-01,4.005e-01
6.275e-01,4.213e-01
6.325e-01,4.437e-01
6.375e-01,4.679e-01
6.425e-01,4.940e-01
6.475e-01,5.224e-01
6.525e-01,5.532e-01
6.575e-01,5.867e-01
6.625e-01,6.232e-01
6.675e-01,6.630e-01
6.725e-01,7.063e-01
6.775e-01,7.537e-01
6.825e-01,8.053e-01
6.875e-01,8.616e-01
6.925e-01,9.231e-01
6.975e-01,9.901e-01
7.025e-01,1.063e+00
7.075e-01,1.143e+00
7.125e-01,1.230e+00
7.175e-01,1.324e+00
7.225e-01,1.427e+00
7.275e-01,1.539e+00
7.325e-01,1.662e+00
7.375e-01,1.795e+00
7.425e-01,1.940e+00
7.475e-01,2.099e+00
7.525e-01,2.273e+00
7.575e-01,2.465e+00
7.625e-01,2.675e+00
7.675e-01,2.907e+00
7.725e-01,3.165e+00
7.775e-01,3.449e+00
7.825e-01,3.765e+00
7.875e-01,4.113e+00
7.925e-01,4.496e+00
7.975e-01,4.913e+00
8.025e-01,5.359e+00
8.075e-01,5.827e+00
8.125e-01,6.306e+00
8.175e-01,6.779e+00
8.225e-01,7.222e+00
8.275e-01,7.612e+00
8.325e-01,7.920e+00
8.375e-01,8.121e+00
8.425e-01,8.193e+00
8.475e-01,8.121e+00
8.525e-01,7.899e+00
8.575e-01,7.533e+00
8.625e-01,7.037e+00
8.675e-01,6.437e+00
8.725e-01,5.762e+00
8.775e-01,5.048e+00
8.825e-01,4.327e+00
8.875e-01,3.629e+00
8.925e-01,2.980e+00
8.975e-01,2.395e+00
9.025e-01,1.886e+00
9.075e-01,1.456e+00
9.125e-01,1.102e+00
9.175e-01,8.191e-01
9.225e-01,5.981e-01
9.275e-01,4.296e-01
9.325e-01,3.039e-01
9.375e-01,2.120e-01
9.425e-01,1.461e-01
9.475e-01,9.959e-02
9.525e-01,6.728e-02
9.575e-01,4.514e-02
9.625e-01,3.013e-02
9.675e-01,2.005e-02
9.725e-01,1.332e-02
9.775e-01,8.863e-03
9.825e-01,5.911e-03
9.875e-01,3.959e-03
9.925e-01,2.665e-03
9.975e-01,1.806e-03
