transmittance,probability_density
2.507e-04,3.064e-39
7.522e-04,8.342e-18
1.254e-03,7.795e-11
1.755e-03,2.810e-07
2.257e-03,3.755e-05
2.758e-03,8.933e-04
3.260e-03,7.641e-03
3.761e-03,3.393e-02
4.263e-03,9.695e-02
4.764e-03,2.044e-01
5.266e-03,3.502e-01
5.767e-03,5.238e-01
6.269e-03,7.206e-01
6.770e-03,9.412e-01
7.272e-03,1.184e+00
7.773e-03,1.439e+00
8.275e-03,1.690e+00
8.776e-03,1.927e+00
9.278e-03,2.144e+00
9.779e-03,2.345e+00
1.028e-02,2.539e+00
1.078e-02,2.733e+00
1.128e-02,2.934e+00
1.179e-02,3.147e+00
1.229e-02,3.375e+00
1.279e-02,3.621e+00
1.329e-02,3.885e+00
1.379e-02,4.167e+00
1.429e-02,4.463e+00
1.479e-02,4.769e+00
1.530e-02,5.083e+00
1.580e-02,5.405e+00
1.630e-02,5.736e+00
1.680e-02,6.081e+00
1.730e-02,6.448e+00
1.780e-02,6.838e+00
1.830e-02,7.255e+00
1.881e-02,7.693e+00
1.931e-02,8.145e+00
1.981e-02,8.600e+00
2.031e-02,9.045e+00
2.081e-02,9.470e+00
2.131e-02,9.868e+00
2.181e-02,1.024e+01
2.232e-02,1.059e+01
2.282e-02,1.092e+01
2.332e-02,1.125e+01
2.382e-02,1.159e+01
2.432e-02,1.196e+01
2.482e-02,1.237e+01
2.533e-02,1.281e+01
2.583e-02,1.330e+01
2.633e-02,1.384e+01
2.683e-02,1.442e+01
2.733e-02,1.504e+01
2.783e-02,1.569e+01
2.833e-02,1.636e+01
2.884e-02,1.705e+01
2.934e-02,1.774e+01
2.984e-02,1.845e+01
3.034e-02,1.915e+01
3.084e-02,1.985e+01
3.134e-02,2.054e+01
3.184e-02,2.123e+01
3.235e-02,2.191e+01
3.285e-02,2.258e+01
3.335e-02,2.324e+01
3.385e-02,2.390e+01
3.435e-02,2.455e+01
3.485e-02,2.519e+01
3.536e-02,2.583e+01
3.586e-02,2.646e+01
3.636e-02,2.709e+01
3.686e-02,2.772e+01
3.736e-02,2.834e+01
3.786e-02,2.895e+01
3.836e-02,2.955e+01
3.887e-02,3.014e+01
3.937e-02,3.071e+01
3.987e-02,3.126e+01
4.037e-02,3.178e+01
4.087e-02,3.227e+01
4.137e-02,3.272e+01
4.187e-02,3.313e+01
4.238e-02,3.348e+01
4.288e-02,3.377e+01
4.338e-02,3.399e+01
4.388e-02,3.414e+01
4.438e-02,3.422e+01
4.488e-02,3.421e+01
4.538e-02,3.411e+01
4.589e-02,3.393e+01
4.639e-02,3.366e+01
4.689e-02,3.330e+01
4.739e-02,3.285e+01
4.789e-02,3.231e+01
4.839e-02,3.169e+01
4.890e-02,3.098e+01
4.940e-02,3.021e+01
4.990e-02,2.936e+01
5.040e-02,2.846e+01
5.090e-02,2.749e+01
5.140e-02,2.648e+01
5.190e-02,2.543e+01
5.241e-02,2.435e+01
5.291e-02,2.325e+01
5.341e-02,2.213e+01
5.391e-02,2.101e+01
5.441e-02,1.988e+01
5.491e-02,1.876e+01
5.541e-02,1.765e+01
5.592e-02,1.656e+01
5.642e-02,1.550e+01
5.692e-02,1.447e+01
5.742e-02,1.346e+01
5.792e-02,1.250e+01
5.842e-02,1.157e+01
5.893e-02,1.069e+01
5.943e-02,9.846e+00
5.993e-02,9.048e+00
6.043e-02,8.294e+00
6.093e-02,7.585e+00
6.143e-02,6.921e+00
6.193e-02,6.300e+00
6.244e-02,5.722e+00
6.294e-02,5.185e+00
6.344e-02,4.689e+00
6.394e-02,4.231e+00
6.444e-02,3.810e+00
6.494e-02,3.423e+00
6.544e-02,3.070e+00
6.595e-02,2.748e+00
6.645e-02,2.455e+00
6.695e-02,2.188e+00
6.745e-02,1.948e+00
6.795e-02,1.730e+00
6.845e-02,1.534e+00
6.895e-02,1.358e+00
6.946e-02,1.200e+00
6.996e-02,1.059e+00
7.046e-02,9.326e-01
7.096e-02,8.201e-01
7.146e-02,7.201e-01
7.196e-02,6.312e-01
7.247e-02,5.525e-01
7.297e-02,4.829e-01
7.347e-02,4.215e-01
7.397e-02,3.673e-01
7.447e-02,3.197e-01
7.497e-02,2.779e-01
7.547e-02,2.412e-01
7.598e-02,2.091e-01
7.648e-02,1.810e-01
7.698e-02,1.565e-01
7.748e-02,1.352e-01
7.798e-02,1.166e-01
7.848e-02,1.005e-01
7.898e-02,8.648e-02
7.949e-02,7.435e-02
7.999e-02,6.385e-02
8.049e-02,5.477e-02
8.099e-02,4.694e-02
8.149e-02,4.018e-02
8.199e-02,3.436e-02
8.250e-02,2.936e-02
8.300e-02,2.506e-02
8.350e-02,2.137e-02
8.400e-02,1.821e-02
8.450e-02,1.550e-02
8.500e-02,1.318e-02
8.550e-02,1.120e-02
8.601e-02,9.511e-03
8.651e-02,8.069e-03
8.701e-02,6.840e-03
8.751e-02,5.793e-03
8.801e-02,4.903e-03
8.851e-02,4.147e-03
8.901e-02,3.505e-03
8.952e-02,2.960e-03
9.002e-02,2.498e-03
9.052e-02,2.107e-03
9.102e-02,1.776e-03
9.152e-02,1.496e-03
9.202e-02,1.259e-03
9.252e-02,1.059e-03
9.303e-02,8.902e-04
9.353e-02,7.480e-04
9.403e-02,6.281e-04
9.453e-02,5.271e-04
9.503e-02,4.421e-04
9.553e-02,3.706e-04
9.604e-02,3.105e-04
9.654e-02,2.601e-04
9.704e-02,2.177e-04
9.754e-02,1.821e-04
9.804e-02,1.523e-04
9.854e-02,1.273e-04
9.904e-02,1.063e-04
9.955e-02,8.879e-05
1.000e-01,7.412e-05
