transmittance,probability_density
3.121e-05,1.847e-29
9.364e-05,2.283e-12
1.561e-04,5.963e-07
2.185e-04,2.989e-04
2.809e-04,1.120e-02
3.433e-04,1.093e-01
4.058e-04,4.854e-01
4.682e-04,1.320e+00
5.306e-04,2.626e+00
5.930e-04,4.303e+00
6.555e-04,6.274e+00
7.179e-04,8.505e+00
7.803e-04,1.092e+01
8.427e-04,1.340e+01
9.052e-04,1.578e+01
9.676e-04,1.799e+01
1.030e-03,2.006e+01
1.092e-03,2.203e+01
1.155e-03,2.400e+01
1.217e-03,2.604e+01
1.280e-03,2.820e+01
1.342e-03,3.051e+01
1.405e-03,3.300e+01
1.467e-03,3.566e+01
1.529e-03,3.846e+01
1.592e-03,4.138e+01
1.654e-03,4.440e+01
1.717e-03,4.752e+01
1.779e-03,5.076e+01
1.842e-03,5.414e+01
1.904e-03,5.771e+01
1.966e-03,6.146e+01
2.029e-03,6.537e+01
2.091e-03,6.940e+01
2.154e-03,7.346e+01
2.216e-03,7.748e+01
2.279e-03,8.139e+01
2.341e-03,8.514e+01
2.403e-03,8.875e+01
2.466e-03,9.225e+01
2.528e-03,9.570e+01
2.591e-03,9.921e+01
2.653e-03,1.029e+02
2.715e-03,1.067e+02
2.778e-03,1.109e+02
2.840e-03,1.154e+02
2.903e-03,1.203e+02
2.965e-03,1.255e+02
3.028e-03,1.310e+02
3.090e-03,1.368e+02
3.152e-03,1.428e+02
3.215e-03,1.490e+02
3.277e-03,1.553e+02
3.340e-03,1.616e+02
3.402e-03,1.680e+02
3.465e-03,1.744e+02
3.527e-03,1.807e+02
3.589e-03,1.871e+02
3.652e-03,1.933e+02
3.714e-03,1.995e+02
3.777e-03,2.057e+02
3.839e-03,2.118e+02
3.902e-03,2.178e+02
3.964e-03,2.238e+02
4.026e-03,2.297e+02
4.089e-03,2.355e+02
4.151e-03,2.412e+02
4.214e-03,2.467e+02
4.276e-03,2.521e+02
4.339e-03,2.573e+02
4.401e-03,2.623e+02
4.463e-03,2.670e+02
4.526e-03,2.713e+02
4.588e-03,2.753e+02
4.651e-03,2.788e+02
4.713e-03,2.818e+02
4.776e-03,2.842e+02
4.838e-03,2.860e+02
4.900e-03,2.872e+02
4.963e-03,2.876e+02
5.025e-03,2.874e+02
5.088e-03,2.864e+02
5.150e-03,2.846e+02
5.212e-03,2.820e+02
5.275e-03,2.787e+02
5.337e-03,2.746e+02
5.400e-03,2.698e+02
5.462e-03,2.643e+02
5.525e-03,2.582e+02
5.587e-03,2.514e+02
5.649e-03,2.441e+02
5.712e-03,2.363e+02
5.774e-03,2.280e+02
5.837e-03,2.194e+02
5.899e-03,2.105e+02
5.962e-03,2.014e+02
6.024e-03,1.921e+02
6.086e-03,1.827e+02
6.149e-03,1.733e+02
6.211e-03,1.639e+02
6.274e-03,1.546e+02
6.336e-03,1.455e+02
6.399e-03,1.365e+02
6.461e-03,1.277e+02
6.523e-03,1.192e+02
6.586e-03,1.110e+02
6.648e-03,1.031e+02
6.711e-03,9.551e+01
6.773e-03,8.828e+01
6.836e-03,8.140e+01
6.898e-03,7.489e+01
6.960e-03,6.874e+01
7.023e-03,6.296e+01
7.085e-03,5.754e+01
7.148e-03,5.248e+01
7.210e-03,4.776e+01
7.273e-03,4.338e+01
7.335e-03,3.933e+01
7.397e-03,3.558e+01
7.460e-03,3.213e+01
7.522e-03,2.896e+01
7.585e-03,2.606e+01
7.647e-03,2.341e+01
7.709e-03,2.099e+01
7.772e-03,1.878e+01
7.834e-03,1.679e+01
7.897e-03,1.498e+01
7.959e-03,1.334e+01
8.022e-03,1.186e+01
8.084e-03,1.054e+01
8.146e-03,9.343e+00
8.209e-03,8.273e+00
8.271e-03,7.316e+00
8.334e-03,6.460e+00
8.396e-03,5.697e+00
8.459e-03,5.017e+00
8.521e-03,4.413e+00
8.583e-03,3.877e+00
8.646e-03,3.402e+00
8.708e-03,2.981e+00
8.771e-03,2.610e+00
8.833e-03,2.282e+00
8.896e-03,1.993e+00
8.958e-03,1.739e+00
9.020e-03,1.516e+00
9.083e-03,1.320e+00
9.145e-03,1.148e+00
9.208e-03,9.975e-01
9.270e-03,8.660e-01
9.333e-03,7.511e-01
9.395e-03,6.509e-01
9.457e-03,5.635e-01
9.520e-03,4.875e-01
9.582e-03,4.213e-01
9.645e-03,3.638e-01
9.707e-03,3.140e-01
9.770e-03,2.707e-01
9.832e-03,2.332e-01
9.894e-03,2.008e-01
9.957e-03,1.728e-01
1.002e-02,1.485e-01
1.008e-02,1.276e-01
1.014e-02,1.095e-01
1.021e-02,9.399e-02
1.027e-02,8.059e-02
1.033e-02,6.906e-02
1.039e-02,5.914e-02
1.046e-02,5.062e-02
1.052e-02,4.330e-02
1.058e-02,3.701e-02
1.064e-02,3.163e-02
1.071e-02,2.701e-02
1.077e-02,2.305e-02
1.083e-02,1.967e-02
1.089e-02,1.677e-02
1.096e-02,1.429e-02
1.102e-02,1.218e-02
1.108e-02,1.037e-02
1.114e-02,8.824e-03
1.121e-02,7.507e-03
1.127e-02,6.384e-03
1.133e-02,5.427e-03
1.139e-02,4.611e-03
1.145e-02,3.917e-03
1.152e-02,3.326e-03
1.158e-02,2.823e-03
1.164e-02,2.395e-03
1.170e-02,2.031e-03
1.177e-02,1.722e-03
1.183e-02,1.460e-03
1.189e-02,1.237e-03
1.195e-02,1.048e-03
1.202e-02,8.874e-04
1.208e-02,7.513e-04
1.214e-02,6.359e-04
1.220e-02,5.380e-04
1.227e-02,4.551e-04
1.233e-02,3.849e-04
1.239e-02,3.254e-04
1.245e-02,2.751e-04
