transmittance,probability_density
6.281e-04,3.818e-56
1.884e-03,1.180e-26
3.141e-03,8.146e-17
4.397e-03,1.122e-11
5.653e-03,1.568e-08
6.909e-03,1.924e-06
8.165e-03,5.491e-05
9.421e-03,6.084e-04
1.068e-02,3.526e-03
1.193e-02,1.287e-02
1.319e-02,3.352e-02
1.445e-02,6.797e-02
1.570e-02,1.147e-01
1.696e-02,1.700e-01
1.821e-02,2.314e-01
1.947e-02,2.993e-01
2.073e-02,3.753e-01
2.198e-02,4.594e-01
2.324e-02,5.480e-01
2.450e-02,6.356e-01
2.575e-02,7.174e-01
2.701e-02,7.914e-01
2.826e-02,8.588e-01
2.952e-02,9.228e-01
3.078e-02,9.868e-01
3.203e-02,1.053e+00
3.329e-02,1.124e+00
3.455e-02,1.200e+00
3.580e-02,1.282e+00
3.706e-02,1.370e+00
3.831e-02,1.466e+00
3.957e-02,1.568e+00
4.083e-02,1.676e+00
4.208e-02,1.787e+00
4.334e-02,1.901e+00
4.460e-02,2.018e+00
4.585e-02,2.136e+00
4.711e-02,2.259e+00
4.836e-02,2.388e+00
4.962e-02,2.526e+00
5.088e-02,2.676e+00
5.213e-02,2.836e+00
5.339e-02,3.005e+00
5.464e-02,3.179e+00
5.590e-02,3.354e+00
5.716e-02,3.524e+00
5.841e-02,3.684e+00
5.967e-02,3.833e+00
6.093e-02,3.968e+00
6.218e-02,4.093e+00
6.344e-02,4.211e+00
6.469e-02,4.328e+00
6.595e-02,4.450e+00
6.721e-02,4.581e+00
6.846e-02,4.727e+00
6.972e-02,4.891e+00
7.098e-02,5.074e+00
7.223e-02,5.278e+00
7.349e-02,5.499e+00
7.474e-02,5.736e+00
7.600e-02,5.987e+00
7.726e-02,6.248e+00
7.851e-02,6.516e+00
7.977e-02,6.788e+00
8.102e-02,7.062e+00
8.228e-02,7.336e+00
8.354e-02,7.609e+00
8.479e-02,7.880e+00
8.605e-02,8.147e+00
8.731e-02,8.411e+00
8.856e-02,8.671e+00
8.982e-02,8.928e+00
9.107e-02,9.182e+00
9.233e-02,9.433e+00
9.359e-02,9.682e+00
9.484e-02,9.929e+00
9.610e-02,1.017e+01
9.736e-02,1.042e+01
9.861e-02,1.066e+01
9.987e-02,1.091e+01
1.011e-01,1.115e+01
1.024e-01,1.139e+01
1.036e-01,1.163e+01
1.049e-01,1.186e+01
1.061e-01,1.209e+01
1.074e-01,1.231e+01
1.087e-01,1.253e+01
1.099e-01,1.273e+01
1.112e-01,1.292e+01
1.124e-01,1.309e+01
1.137e-01,1.325e+01
1.149e-01,1.338e+01
1.162e-01,1.349e+01
1.175e-01,1.356e+01
1.187e-01,1.361e+01
1.200e-01,1.363e+01
1.212e-01,1.361e+01
1.225e-01,1.355e+01
1.237e-01,1.346e+01
1.250e-01,1.334e+01
1.262e-01,1.317e+01
1.275e-01,1.297e+01
1.288e-01,1.273e+01
1.300e-01,1.246e+01
1.313e-01,1.216e+01
1.325e-01,1.182e+01
1.338e-01,1.146e+01
1.350e-01,1.108e+01
1.363e-01,1.067e+01
1.376e-01,1.025e+01
1.388e-01,9.809e+00
1.401e-01,9.360e+00
1.413e-01,8.903e+00
1.426e-01,8.442e+00
1.438e-01,7.980e+00
1.451e-01,7.521e+00
1.463e-01,7.066e+00
1.476e-01,6.618e+00
1.489e-01,6.181e+00
1.501e-01,5.755e+00
1.514e-01,5.343e+00
1.526e-01,4.946e+00
1.539e-01,4.566e+00
1.551e-01,4.203e+00
1.564e-01,3.859e+00
1.577e-01,3.533e+00
1.589e-01,3.226e+00
1.602e-01,2.938e+00
1.614e-01,2.668e+00
1.627e-01,2.418e+00
1.639e-01,2.185e+00
1.652e-01,1.970e+00
1.664e-01,1.772e+00
1.677e-01,1.590e+00
1.690e-01,1.423e+00
1.702e-01,1.271e+00
1.715e-01,1.132e+00
1.727e-01,1.007e+00
1.740e-01,8.934e-01
1.752e-01,7.909e-01
1.765e-01,6.988e-01
1.778e-01,6.161e-01
1.790e-01,5.421e-01
1.803e-01,4.761e-01
1.815e-01,4.173e-01
1.828e-01,3.651e-01
1.840e-01,3.188e-01
1.853e-01,2.778e-01
1.865e-01,2.417e-01
1.878e-01,2.100e-01
1.891e-01,1.821e-01
1.903e-01,1.576e-01
1.916e-01,1.362e-01
1.928e-01,1.175e-01
1.941e-01,1.012e-01
1.953e-01,8.705e-02
1.966e-01,7.475e-02
1.979e-01,6.410e-02
1.991e-01,5.488e-02
2.004e-01,4.693e-02
2.016e-01,4.007e-02
2.029e-01,3.416e-02
2.041e-01,2.909e-02
2.054e-01,2.474e-02
2.066e-01,2.101e-02
2.079e-01,1.782e-02
2.092e-01,1.509e-02
2.104e-01,1.277e-02
2.117e-01,1.079e-02
2.129e-01,9.111e-03
2.142e-01,7.682e-03
2.154e-01,6.469e-03
2.167e-01,5.443e-03
2.180e-01,4.574e-03
2.192e-01,3.840e-03
2.205e-01,3.220e-03
2.217e-01,2.698e-03
2.230e-01,2.258e-03
2.242e-01,1.888e-03
2.255e-01,1.577e-03
2.267e-01,1.316e-03
2.280e-01,1.098e-03
2.293e-01,9.144e-04
2.305e-01,7.611e-04
2.318e-01,6.330e-04
2.330e-01,5.260e-04
2.343e-01,4.367e-04
2.355e-01,3.623e-04
2.368e-01,3.004e-04
2.380e-01,2.488e-04
2.393e-01,2.059e-04
2.406e-01,1.703e-04
2.418e-01,1.408e-04
2.431e-01,1.163e-04
2.443e-01,9.597e-05
2.456e-01,7.916e-05
2.468e-01,6.525e-05
2.481e-01,5.375e-05
2.494e-01,4.425e-05
2.506e-01,3.640e-05
