transmittance,probability_density
1.687e-03,5.200e-208
5.062e-03,8.262e-111
8.437e-03,4.174e-76
1.181e-02,6.931e-57
1.519e-02,2.048e-44
1.856e-02,1.292e-35
2.194e-02,4.498e-29
2.531e-02,4.902e-24
2.869e-02,4.654e-20
3.206e-02,7.359e-17
3.544e-02,2.989e-14
3.881e-02,4.218e-12
4.219e-02,2.570e-10
4.556e-02,7.951e-09
4.893e-02,1.411e-07
5.231e-02,1.581e-06
5.568e-02,1.205e-05
5.906e-02,6.639e-05
6.243e-02,2.775e-04
6.581e-02,9.166e-04
6.918e-02,2.473e-03
7.256e-02,5.610e-03
7.593e-02,1.095e-02
7.931e-02,1.880e-02
8.268e-02,2.890e-02
8.606e-02,4.048e-02
8.943e-02,5.258e-02
9.281e-02,6.444e-02
9.618e-02,7.598e-02
9.956e-02,8.787e-02
1.029e-01,1.013e-01
1.063e-01,1.176e-01
1.097e-01,1.372e-01
1.131e-01,1.597e-01
1.164e-01,1.833e-01
1.198e-01,2.059e-01
1.232e-01,2.255e-01
1.266e-01,2.410e-01
1.299e-01,2.529e-01
1.333e-01,2.629e-01
1.367e-01,2.731e-01
1.401e-01,2.852e-01
1.434e-01,3.000e-01
1.468e-01,3.176e-01
1.502e-01,3.371e-01
1.536e-01,3.579e-01
1.569e-01,3.796e-01
1.603e-01,4.022e-01
1.637e-01,4.264e-01
1.671e-01,4.526e-01
1.704e-01,4.812e-01
1.738e-01,5.120e-01
1.772e-01,5.446e-01
1.806e-01,5.784e-01
1.839e-01,6.125e-01
1.873e-01,6.467e-01
1.907e-01,6.808e-01
1.941e-01,7.152e-01
1.974e-01,7.506e-01
2.008e-01,7.880e-01
2.042e-01,8.286e-01
2.076e-01,8.734e-01
2.109e-01,9.229e-01
2.143e-01,9.770e-01
2.177e-01,1.035e+00
2.210e-01,1.095e+00
2.244e-01,1.155e+00
2.278e-01,1.213e+00
2.312e-01,1.267e+00
2.345e-01,1.316e+00
2.379e-01,1.360e+00
2.413e-01,1.398e+00
2.447e-01,1.433e+00
2.480e-01,1.467e+00
2.514e-01,1.502e+00
2.548e-01,1.541e+00
2.582e-01,1.585e+00
2.615e-01,1.636e+00
2.649e-01,1.695e+00
2.683e-01,1.762e+00
2.717e-01,1.838e+00
2.750e-01,1.920e+00
2.784e-01,2.009e+00
2.818e-01,2.103e+00
2.852e-01,2.200e+00
2.885e-01,2.301e+00
2.919e-01,2.403e+00
2.953e-01,2.506e+00
2.987e-01,2.610e+00
3.020e-01,2.713e+00
3.054e-01,2.816e+00
3.088e-01,2.918e+00
3.122e-01,3.019e+00
3.155e-01,3.119e+00
3.189e-01,3.219e+00
3.223e-01,3.317e+00
3.257e-01,3.415e+00
3.290e-01,3.512e+00
3.324e-01,3.609e+00
3.358e-01,3.706e+00
3.392e-01,3.803e+00
3.425e-01,3.902e+00
3.459e-01,4.000e+00
3.493e-01,4.100e+00
3.527e-01,4.201e+00
3.560e-01,4.303e+00
3.594e-01,4.405e+00
3.628e-01,4.508e+00
3.662e-01,4.610e+00
3.695e-01,4.711e+00
3.729e-01,4.810e+00
3.763e-01,4.906e+00
3.797e-01,4.997e+00
3.830e-01,5.083e+00
3.864e-01,5.160e+00
3.898e-01,5.229e+00
3.932e-01,5.287e+00
3.965e-01,5.333e+00
3.999e-01,5.365e+00
4.033e-01,5.381e+00
4.067e-01,5.382e+00
4.100e-01,5.365e+00
4.134e-01,5.330e+00
4.168e-01,5.277e+00
4.202e-01,5.205e+00
4.235e-01,5.115e+00
4.269e-01,5.007e+00
4.303e-01,4.882e+00
4.337e-01,4.741e+00
4.370e-01,4.585e+00
4.404e-01,4.415e+00
4.438e-01,4.234e+00
4.472e-01,4.044e+00
4.505e-01,3.845e+00
4.539e-01,3.641e+00
4.573e-01,3.432e+00
4.607e-01,3.222e+00
4.640e-01,3.012e+00
4.674e-01,2.804e+00
4.708e-01,2.599e+00
4.742e-01,2.398e+00
4.775e-01,2.204e+00
4.809e-01,2.017e+00
4.843e-01,1.839e+00
4.877e-01,1.669e+00
4.910e-01,1.509e+00
4.944e-01,1.358e+00
4.978e-01,1.218e+00
5.012e-01,1.088e+00
5.045e-01,9.683e-01
5.079e-01,8.582e-01
5.113e-01,7.578e-01
5.147e-01,6.666e-01
5.180e-01,5.842e-01
5.214e-01,5.101e-01
5.248e-01,4.438e-01
5.282e-01,3.848e-01
5.315e-01,3.324e-01
5.349e-01,2.862e-01
5.383e-01,2.455e-01
5.417e-01,2.099e-01
5.450e-01,1.789e-01
5.484e-01,1.520e-01
5.518e-01,1.287e-01
5.552e-01,1.086e-01
5.585e-01,9.138e-02
5.619e-01,7.666e-02
5.653e-01,6.411e-02
5.687e-01,5.345e-02
5.720e-01,4.444e-02
5.754e-01,3.684e-02
5.788e-01,3.045e-02
5.822e-01,2.510e-02
5.855e-01,2.064e-02
5.889e-01,1.692e-02
5.923e-01,1.383e-02
5.957e-01,1.128e-02
5.990e-01,9.178e-03
6.024e-01,7.447e-03
6.058e-01,6.027e-03
6.092e-01,4.867e-03
6.125e-01,3.920e-03
6.159e-01,3.150e-03
6.193e-01,2.526e-03
6.227e-01,2.020e-03
6.260e-01,1.612e-03
6.294e-01,1.284e-03
6.328e-01,1.020e-03
6.361e-01,8.090e-04
6.395e-01,6.402e-04
6.429e-01,5.055e-04
6.463e-01,3.984e-04
6.496e-01,3.133e-04
6.530e-01,2.459e-04
6.564e-01,1.927e-04
6.598e-01,1.507e-04
6.631e-01,1.176e-04
6.665e-01,9.163e-05
6.699e-01,7.126e-05
6.733e-01,5.532e-05
