transmittance,probability_density
1.084e-03,1.730e-88
3.251e-03,7.154e-44
5.418e-03,1.409e-28
7.585e-03,2.151e-20
9.752e-03,2.923e-15
1.192e-02,9.204e-12
1.409e-02,2.951e-09
1.625e-02,2.112e-07
1.842e-02,5.335e-06
2.059e-02,6.355e-05
2.275e-02,4.324e-04
2.492e-02,1.919e-03
2.709e-02,6.113e-03
2.925e-02,1.499e-02
3.142e-02,2.988e-02
3.359e-02,5.060e-02
3.576e-02,7.554e-02
3.792e-02,1.029e-01
4.009e-02,1.319e-01
4.226e-02,1.634e-01
4.442e-02,1.989e-01
4.659e-02,2.392e-01
4.876e-02,2.833e-01
5.092e-02,3.283e-01
5.309e-02,3.710e-01
5.526e-02,4.090e-01
5.743e-02,4.422e-01
5.959e-02,4.721e-01
6.176e-02,5.012e-01
6.393e-02,5.315e-01
6.609e-02,5.642e-01
6.826e-02,5.998e-01
7.043e-02,6.382e-01
7.259e-02,6.796e-01
7.476e-02,7.242e-01
7.693e-02,7.725e-01
7.910e-02,8.246e-01
8.126e-02,8.804e-01
8.343e-02,9.391e-01
8.560e-02,9.998e-01
8.776e-02,1.062e+00
8.993e-02,1.124e+00
9.210e-02,1.187e+00
9.426e-02,1.252e+00
9.643e-02,1.320e+00
9.860e-02,1.393e+00
1.008e-01,1.473e+00
1.029e-01,1.560e+00
1.051e-01,1.653e+00
1.073e-01,1.752e+00
1.094e-01,1.852e+00
1.116e-01,1.950e+00
1.138e-01,2.044e+00
1.159e-01,2.131e+00
1.181e-01,2.209e+00
1.203e-01,2.279e+00
1.224e-01,2.344e+00
1.246e-01,2.405e+00
1.268e-01,2.467e+00
1.289e-01,2.533e+00
1.311e-01,2.607e+00
1.333e-01,2.691e+00
1.354e-01,2.787e+00
1.376e-01,2.895e+00
1.398e-01,3.015e+00
1.419e-01,3.147e+00
1.441e-01,3.288e+00
1.463e-01,3.436e+00
1.484e-01,3.590e+00
1.506e-01,3.748e+00
1.528e-01,3.908e+00
1.549e-01,4.068e+00
1.571e-01,4.229e+00
1.593e-01,4.388e+00
1.614e-01,4.545e+00
1.636e-01,4.701e+00
1.658e-01,4.855e+00
1.679e-01,5.007e+00
1.701e-01,5.157e+00
1.723e-01,5.305e+00
1.744e-01,5.452e+00
1.766e-01,5.597e+00
1.788e-01,5.742e+00
1.809e-01,5.887e+00
1.831e-01,6.031e+00
1.853e-01,6.175e+00
1.874e-01,6.319e+00
1.896e-01,6.464e+00
1.918e-01,6.609e+00
1.939e-01,6.753e+00
1.961e-01,6.897e+00
1.983e-01,7.038e+00
2.004e-01,7.177e+00
2.026e-01,7.312e+00
2.048e-01,7.441e+00
2.069e-01,7.563e+00
2.091e-01,7.677e+00
2.113e-01,7.779e+00
2.134e-01,7.868e+00
2.156e-01,7.943e+00
2.178e-01,8.001e+00
2.200e-01,8.040e+00
2.221e-01,8.059e+00
2.243e-01,8.057e+00
2.265e-01,8.033e+00
2.286e-01,7.985e+00
2.308e-01,7.913e+00
2.330e-01,7.818e+00
2.351e-01,7.698e+00
2.373e-01,7.556e+00
2.395e-01,7.391e+00
2.416e-01,7.205e+00
2.438e-01,6.999e+00
2.460e-01,6.775e+00
2.481e-01,6.536e+00
2.503e-01,6.282e+00
2.525e-01,6.018e+00
2.546e-01,5.743e+00
2.568e-01,5.462e+00
2.590e-01,5.177e+00
2.611e-01,4.889e+00
2.633e-01,4.601e+00
2.655e-01,4.315e+00
2.676e-01,4.032e+00
2.698e-01,3.756e+00
2.720e-01,3.486e+00
2.741e-01,3.225e+00
2.763e-01,2.974e+00
2.785e-01,2.733e+00
2.806e-01,2.503e+00
2.828e-01,2.286e+00
2.850e-01,2.081e+00
2.871e-01,1.888e+00
2.893e-01,1.708e+00
2.915e-01,1.540e+00
2.936e-01,1.385e+00
2.958e-01,1.242e+00
2.980e-01,1.110e+00
3.001e-01,9.895e-01
3.023e-01,8.795e-01
3.045e-01,7.797e-01
3.066e-01,6.893e-01
3.088e-01,6.077e-01
3.110e-01,5.344e-01
3.131e-01,4.688e-01
3.153e-01,4.101e-01
3.175e-01,3.579e-01
3.196e-01,3.116e-01
3.218e-01,2.706e-01
3.240e-01,2.345e-01
3.261e-01,2.027e-01
3.283e-01,1.748e-01
3.305e-01,1.504e-01
3.326e-01,1.292e-01
3.348e-01,1.107e-01
3.370e-01,9.462e-02
3.391e-01,8.073e-02
3.413e-01,6.874e-02
3.435e-01,5.841e-02
3.456e-01,4.954e-02
3.478e-01,4.193e-02
3.500e-01,3.543e-02
3.521e-01,2.988e-02
3.543e-01,2.515e-02
3.565e-01,2.113e-02
3.586e-01,1.772e-02
3.608e-01,1.484e-02
3.630e-01,1.241e-02
3.651e-01,1.035e-02
3.673e-01,8.626e-03
3.695e-01,7.175e-03
3.716e-01,5.960e-03
3.738e-01,4.942e-03
3.760e-01,4.092e-03
3.781e-01,3.384e-03
3.803e-01,2.793e-03
3.825e-01,2.303e-03
3.846e-01,1.896e-03
3.868e-01,1.559e-03
3.890e-01,1.280e-03
3.911e-01,1.050e-03
3.933e-01,8.596e-04
3.955e-01,7.030e-04
3.976e-01,5.743e-04
3.998e-01,4.686e-04
4.020e-01,3.819e-04
4.041e-01,3.108e-04
4.063e-01,2.527e-04
4.085e-01,2.053e-04
4.106e-01,1.665e-04
4.128e-01,1.349e-04
4.150e-01,1.092e-04
4.171e-01,8.834e-05
4.193e-01,7.137e-05
4.215e-01,5.760e-05
4.236e-01,4.644e-05
4.258e-01,3.741e-05
4.280e-01,3.010e-05
4.301e-01,2.420e-05
4.323e-01,1.944e-05
