transmittance,probability_density
2.051e-01,3.703e-11
2.091e-01,3.021e-10
2.131e-01,2.119e-09
2.170e-01,1.288e-08
2.210e-01,6.829e-08
2.250e-01,3.182e-07
2.290e-01,1.310e-06
2.330e-01,4.800e-06
2.370e-01,1.572e-05
2.409e-01,4.628e-05
2.449e-01,1.231e-04
2.489e-01,2.970e-04
2.529e-01,6.534e-04
2.569e-01,1.315e-03
2.609e-01,2.433e-03
2.649e-01,4.150e-03
2.688e-01,6.551e-03
2.728e-01,9.602e-03
2.768e-01,1.311e-02
2.808e-01,1.671e-02
2.848e-01,1.996e-02
2.888e-01,2.239e-02
2.927e-01,2.366e-02
2.967e-01,2.359e-02
3.007e-01,2.226e-02
3.047e-01,1.991e-02
3.087e-01,1.692e-02
3.127e-01,1.369e-02
3.167e-01,1.057e-02
3.206e-01,7.796e-03
3.246e-01,5.511e-03
3.286e-01,3.750e-03
3.326e-01,2.488e-03
3.366e-01,1.672e-03
3.406e-01,1.253e-03
3.445e-01,1.211e-03
3.485e-01,1.567e-03
3.525e-01,2.373e-03
3.565e-01,3.692e-03
3.605e-01,5.571e-03
3.645e-01,7.997e-03
3.684e-01,1.087e-02
3.724e-01,1.399e-02
3.764e-01,1.710e-02
3.804e-01,1.990e-02
3.844e-01,2.216e-02
3.884e-01,2.376e-02
3.924e-01,2.475e-02
3.963e-01,2.532e-02
4.003e-01,2.581e-02
4.043e-01,2.661e-02
4.083e-01,2.806e-02
4.123e-01,3.042e-02
4.163e-01,3.381e-02
4.202e-01,3.818e-02
4.242e-01,4.331e-02
4.282e-01,4.890e-02
4.322e-01,5.456e-02
4.362e-01,5.990e-02
4.402e-01,6.458e-02
4.442e-01,6.838e-02
4.481e-01,7.124e-02
4.521e-01,7.325e-02
4.561e-01,7.472e-02
4.601e-01,7.608e-02
4.641e-01,7.788e-02
4.681e-01,8.062e-02
4.720e-01,8.476e-02
4.760e-01,9.057e-02
4.800e-01,9.807e-02
4.840e-01,1.071e-01
4.880e-01,1.172e-01
4.920e-01,1.278e-01
4.960e-01,1.383e-01
4.999e-01,1.483e-01
5.039e-01,1.571e-01
5.079e-01,1.645e-01
5.119e-01,1.706e-01
5.159e-01,1.755e-01
5.199e-01,1.794e-01
5.238e-01,1.829e-01
5.278e-01,1.865e-01
5.318e-01,1.907e-01
5.358e-01,1.961e-01
5.398e-01,2.032e-01
5.438e-01,2.122e-01
5.478e-01,2.234e-01
5.517e-01,2.369e-01
5.557e-01,2.528e-01
5.597e-01,2.708e-01
5.637e-01,2.907e-01
5.677e-01,3.123e-01
5.717e-01,3.353e-01
5.756e-01,3.594e-01
5.796e-01,3.842e-01
5.836e-01,4.096e-01
5.876e-01,4.354e-01
5.916e-01,4.614e-01
5.956e-01,4.876e-01
5.996e-01,5.142e-01
6.035e-01,5.411e-01
6.075e-01,5.687e-01
6.115e-01,5.969e-01
6.155e-01,6.261e-01
6.195e-01,6.563e-01
6.235e-01,6.877e-01
6.274e-01,7.204e-01
6.314e-01,7.545e-01
6.354e-01,7.900e-01
6.394e-01,8.272e-01
6.434e-01,8.662e-01
6.474e-01,9.071e-01
6.514e-01,9.505e-01
6.553e-01,9.966e-01
6.593e-01,1.046e+00
6.633e-01,1.099e+00
6.673e-01,1.157e+00
6.713e-01,1.220e+00
6.753e-01,1.289e+00
6.792e-01,1.365e+00
6.832e-01,1.447e+00
6.872e-01,1.537e+00
6.912e-01,1.635e+00
6.952e-01,1.740e+00
6.992e-01,1.853e+00
7.032e-01,1.975e+00
7.071e-01,2.103e+00
7.111e-01,2.240e+00
7.151e-01,2.383e+00
7.191e-01,2.533e+00
7.231e-01,2.690e+00
7.271e-01,2.853e+00
7.310e-01,3.023e+00
7.350e-01,3.199e+00
7.390e-01,3.380e+00
7.430e-01,3.568e+00
7.470e-01,3.762e+00
7.510e-01,3.962e+00
7.550e-01,4.168e+00
7.589e-01,4.379e+00
7.629e-01,4.597e+00
7.669e-01,4.819e+00
7.709e-01,5.045e+00
7.749e-01,5.273e+00
7.789e-01,5.501e+00
7.828e-01,5.726e+00
7.868e-01,5.945e+00
7.908e-01,6.154e+00
7.948e-01,6.346e+00
7.988e-01,6.518e+00
8.028e-01,6.662e+00
8.067e-01,6.772e+00
8.107e-01,6.843e+00
8.147e-01,6.870e+00
8.187e-01,6.847e+00
8.227e-01,6.773e+00
8.267e-01,6.644e+00
8.307e-01,6.461e+00
8.346e-01,6.226e+00
8.386e-01,5.943e+00
8.426e-01,5.617e+00
8.466e-01,5.256e+00
8.506e-01,4.867e+00
8.546e-01,4.460e+00
8.585e-01,4.042e+00
8.625e-01,3.624e+00
8.665e-01,3.214e+00
8.705e-01,2.818e+00
8.745e-01,2.444e+00
8.785e-01,2.095e+00
8.825e-01,1.776e+00
8.864e-01,1.489e+00
8.904e-01,1.234e+00
8.944e-01,1.012e+00
8.984e-01,8.198e-01
9.024e-01,6.570e-01
9.064e-01,5.207e-01
9.103e-01,4.081e-01
9.143e-01,3.164e-01
9.183e-01,2.426e-01
9.223e-01,1.840e-01
9.263e-01,1.380e-01
9.303e-01,1.025e-01
9.343e-01,7.526e-02
9.382e-01,5.470e-02
9.422e-01,3.934e-02
9.462e-01,2.800e-02
9.502e-01,1.973e-02
9.542e-01,1.376e-02
9.582e-01,9.502e-03
9.621e-01,6.496e-03
9.661e-01,4.398e-03
9.701e-01,2.948e-03
9.741e-01,1.958e-03
9.781e-01,1.288e-03
9.821e-01,8.389e-04
9.861e-01,5.415e-04
9.900e-01,3.463e-04
9.940e-01,2.195e-04
9.980e-01,1.378e-04
