transmittance,probability_density
6.644e-01,4.914e-13
6.661e-01,9.450e-13
6.678e-01,1.798e-12
6.694e-01,3.386e-12
6.711e-01,6.310e-12
6.728e-01,1.164e-11
6.745e-01,2.125e-11
6.762e-01,3.840e-11
6.778e-01,6.871e-11
6.795e-01,1.217e-10
6.812e-01,2.135e-10
6.829e-01,3.708e-10
6.846e-01,6.377e-10
6.863e-01,1.086e-09
6.879e-01,1.832e-09
6.896e-01,3.061e-09
6.913e-01,5.065e-09
6.930e-01,8.304e-09
6.947e-01,1.349e-08
6.963e-01,2.170e-08
6.980e-01,3.459e-08
6.997e-01,5.463e-08
7.014e-01,8.551e-08
7.031e-01,1.326e-07
7.048e-01,2.039e-07
7.064e-01,3.106e-07
7.081e-01,4.690e-07
7.098e-01,7.020e-07
7.115e-01,1.042e-06
7.132e-01,1.532e-06
7.149e-01,2.234e-06
7.165e-01,3.230e-06
7.182e-01,4.630e-06
7.199e-01,6.580e-06
7.216e-01,9.275e-06
7.233e-01,1.296e-05
7.249e-01,1.797e-05
7.266e-01,2.471e-05
7.283e-01,3.369e-05
7.300e-01,4.557e-05
7.317e-01,6.114e-05
7.334e-01,8.138e-05
7.350e-01,1.075e-04
7.367e-01,1.408e-04
7.384e-01,1.830e-04
7.401e-01,2.360e-04
7.418e-01,3.020e-04
7.435e-01,3.835e-04
7.451e-01,4.833e-04
7.468e-01,6.044e-04
7.485e-01,7.502e-04
7.502e-01,9.242e-04
7.519e-01,1.130e-03
7.535e-01,1.372e-03
7.552e-01,1.653e-03
7.569e-01,1.977e-03
7.586e-01,2.348e-03
7.603e-01,2.768e-03
7.620e-01,3.240e-03
7.636e-01,3.765e-03
7.653e-01,4.345e-03
7.670e-01,4.979e-03
7.687e-01,5.666e-03
7.704e-01,6.403e-03
7.721e-01,7.187e-03
7.737e-01,8.011e-03
7.754e-01,8.870e-03
7.771e-01,9.754e-03
7.788e-01,1.066e-02
7.805e-01,1.156e-02
7.821e-01,1.246e-02
7.838e-01,1.335e-02
7.855e-01,1.420e-02
7.872e-01,1.502e-02
7.889e-01,1.577e-02
7.906e-01,1.647e-02
7.922e-01,1.708e-02
7.939e-01,1.761e-02
7.956e-01,1.805e-02
7.973e-01,1.839e-02
7.990e-01,1.863e-02
8.007e-01,1.877e-02
8.023e-01,1.880e-02
8.040e-01,1.874e-02
8.057e-01,1.859e-02
8.074e-01,1.836e-02
8.091e-01,1.805e-02
8.107e-01,1.769e-02
8.124e-01,1.728e-02
8.141e-01,1.684e-02
8.158e-01,1.640e-02
8.175e-01,1.596e-02
8.192e-01,1.554e-02
8.208e-01,1.517e-02
8.225e-01,1.486e-02
8.242e-01,1.463e-02
8.259e-01,1.449e-02
8.276e-01,1.446e-02
8.292e-01,1.456e-02
8.309e-01,1.479e-02
8.326e-01,1.517e-02
8.343e-01,1.571e-02
8.360e-01,1.642e-02
8.377e-01,1.730e-02
8.393e-01,1.837e-02
8.410e-01,1.962e-02
8.427e-01,2.107e-02
8.444e-01,2.273e-02
8.461e-01,2.458e-02
8.478e-01,2.666e-02
8.494e-01,2.894e-02
8.511e-01,3.146e-02
8.528e-01,3.421e-02
8.545e-01,3.720e-02
8.562e-01,4.044e-02
8.578e-01,4.394e-02
8.595e-01,4.772e-02
8.612e-01,5.179e-02
8.629e-01,5.617e-02
8.646e-01,6.087e-02
8.663e-01,6.592e-02
8.679e-01,7.134e-02
8.696e-01,7.715e-02
8.713e-01,8.338e-02
8.730e-01,9.007e-02
8.747e-01,9.724e-02
8.764e-01,1.049e-01
8.780e-01,1.132e-01
8.797e-01,1.221e-01
8.814e-01,1.316e-01
8.831e-01,1.419e-01
8.848e-01,1.529e-01
8.864e-01,1.648e-01
8.881e-01,1.775e-01
8.898e-01,1.912e-01
8.915e-01,2.059e-01
8.932e-01,2.218e-01
8.949e-01,2.389e-01
8.965e-01,2.574e-01
8.982e-01,2.773e-01
8.999e-01,2.990e-01
9.016e-01,3.226e-01
9.033e-01,3.482e-01
9.050e-01,3.763e-01
9.066e-01,4.071e-01
9.083e-01,4.411e-01
9.100e-01,4.786e-01
9.117e-01,5.201e-01
9.134e-01,5.663e-01
9.150e-01,6.176e-01
9.167e-01,6.749e-01
9.184e-01,7.389e-01
9.201e-01,8.104e-01
9.218e-01,8.905e-01
9.235e-01,9.803e-01
9.251e-01,1.081e+00
9.268e-01,1.194e+00
9.285e-01,1.322e+00
9.302e-01,1.466e+00
9.319e-01,1.629e+00
9.336e-01,1.814e+00
9.352e-01,2.025e+00
9.369e-01,2.269e+00
9.386e-01,2.550e+00
9.403e-01,2.877e+00
9.420e-01,3.260e+00
9.436e-01,3.711e+00
9.453e-01,4.245e+00
9.470e-01,4.882e+00
9.487e-01,5.643e+00
9.504e-01,6.557e+00
9.521e-01,7.658e+00
9.537e-01,8.986e+00
9.554e-01,1.059e+01
9.571e-01,1.253e+01
9.588e-01,1.485e+01
9.605e-01,1.761e+01
9.621e-01,2.083e+01
9.638e-01,2.445e+01
9.655e-01,2.837e+01
9.672e-01,3.233e+01
9.689e-01,3.599e+01
9.706e-01,3.890e+01
9.722e-01,4.062e+01
9.739e-01,4.079e+01
9.756e-01,3.925e+01
9.773e-01,3.608e+01
9.790e-01,3.161e+01
9.807e-01,2.636e+01
9.823e-01,2.090e+01
9.840e-01,1.574e+01
9.857e-01,1.127e+01
9.874e-01,7.668e+00
9.891e-01,4.967e+00
9.907e-01,3.067e+00
9.924e-01,1.808e+00
9.941e-01,1.021e+00
9.958e-01,5.542e-01
9.975e-01,2.901e-01
9.992e-01,1.471e-01
