transmittance,probability_density
2.500e-03,5.740e-53
7.500e-03,6.814e-43
1.250e-02,3.341e-38
1.750e-02,4.128e-35
2.250e-02,8.440e-33
2.750e-02,5.918e-31
3.250e-02,2.039e-29
3.750e-02,4.233e-28
4.250e-02,6.012e-27
4.750e-02,6.360e-26
5.250e-02,7.354e-25
5.750e-02,9.060e-22
6.250e-02,1.202e-18
6.750e-02,5.772e-16
7.250e-02,1.152e-13
7.750e-02,1.070e-11
8.250e-02,5.062e-10
8.750e-02,1.317e-08
9.250e-02,2.006e-07
9.750e-02,1.887e-06
1.025e-01,1.148e-05
1.075e-01,4.704e-05
1.125e-01,1.350e-04
1.175e-01,2.821e-04
1.225e-01,4.509e-04
1.275e-01,5.867e-04
1.325e-01,6.707e-04
1.375e-01,7.191e-04
1.425e-01,7.356e-04
1.475e-01,7.001e-04
1.525e-01,6.008e-04
1.575e-01,4.589e-04
1.625e-01,3.188e-04
1.675e-01,2.237e-04
1.725e-01,1.997e-04
1.775e-01,2.545e-04
1.825e-01,3.829e-04
1.875e-01,5.723e-04
1.925e-01,8.080e-04
1.975e-01,1.080e-03
2.025e-01,1.389e-03
2.075e-01,1.746e-03
2.125e-01,2.169e-03
2.175e-01,2.670e-03
2.225e-01,3.246e-03
2.275e-01,3.880e-03
2.325e-01,4.542e-03
2.375e-01,5.197e-03
2.425e-01,5.817e-03
2.475e-01,6.389e-03
2.525e-01,6.913e-03
2.575e-01,7.408e-03
2.625e-01,7.905e-03
2.675e-01,8.438e-03
2.725e-01,9.041e-03
2.775e-01,9.738e-03
2.825e-01,1.055e-02
2.875e-01,1.148e-02
2.925e-01,1.253e-02
2.975e-01,1.370e-02
3.025e-01,1.499e-02
3.075e-01,1.639e-02
3.125e-01,1.790e-02
3.175e-01,1.950e-02
3.225e-01,2.119e-02
3.275e-01,2.298e-02
3.325e-01,2.484e-02
3.375e-01,2.680e-02
3.425e-01,2.884e-02
3.475e-01,3.100e-02
3.525e-01,3.330e-02
3.575e-01,3.576e-02
3.625e-01,3.841e-02
3.675e-01,4.130e-02
3.725e-01,4.445e-02
3.775e-01,4.787e-02
3.825e-01,5.159e-02
3.875e-01,5.562e-02
3.925e-01,5.996e-02
3.975e-01,6.463e-02
4.025e-01,6.961e-02
4.075e-01,7.493e-02
4.125e-01,8.058e-02
4.175e-01,8.659e-02
4.225e-01,9.298e-02
4.275e-01,9.975e-02
4.325e-01,1.069e-01
4.375e-01,1.145e-01
4.425e-01,1.225e-01
4.475e-01,1.310e-01
4.525e-01,1.399e-01
4.575e-01,1.492e-01
4.625e-01,1.591e-01
4.675e-01,1.694e-01
4.725e-01,1.802e-01
4.775e-01,1.915e-01
4.825e-01,2.034e-01
4.875e-01,2.159e-01
4.925e-01,2.290e-01
4.975e-01,2.428e-01
5.025e-01,2.573e-01
5.075e-01,2.726e-01
5.125e-01,2.887e-01
5.175e-01,3.058e-01
5.225e-01,3.240e-01
5.275e-01,3.432e-01
5.325e-01,3.636e-01
5.375e-01,3.853e-01
5.425e-01,4.083e-01
5.475e-01,4.327e-01
5.525e-01,4.586e-01
5.575e-01,4.861e-01
5.625e-01,5.152e-01
5.675e-01,5.460e-01
5.725e-01,5.785e-01
5.775e-01,6.129e-01
5.825e-01,6.491e-01
5.875e-01,6.873e-01
5.925e-01,7.274e-01
5.975e-01,7.696e-01
6.025e-01,8.140e-01
6.075e-01,8.605e-01
6.125e-01,9.092e-01
6.175e-01,9.602e-01
6.225e-01,1.013e+00
6.275e-01,1.069e+00
6.325e-01,1.127e+00
6.375e-01,1.188e+00
6.425e-01,1.251e+00
6.475e-01,1.316e+00
6.525e-01,1.384e+00
6.575e-01,1.455e+00
6.625e-01,1.527e+00
6.675e-01,1.603e+00
6.725e-01,1.681e+00
6.775e-01,1.761e+00
6.825e-01,1.843e+00
6.875e-01,1.927e+00
6.925e-01,2.014e+00
6.975e-01,2.102e+00
7.025e-01,2.192e+00
7.075e-01,2.284e+00
7.125e-01,2.377e+00
7.175e-01,2.472e+00
7.225e-01,2.567e+00
7.275e-01,2.662e+00
7.325e-01,2.759e+00
7.375e-01,2.854e+00
7.425e-01,2.950e+00
7.475e-01,3.045e+00
7.525e-01,3.138e+00
7.575e-01,3.230e+00
7.625e-01,3.320e+00
7.675e-01,3.407e+00
7.725e-01,3.491e+00
7.775e-01,3.571e+00
7.825e-01,3.647e+00
7.875e-01,3.718e+00
7.925e-01,3.783e+00
7.975e-01,3.843e+00
8.025e-01,3.896e+00
8.075e-01,3.941e+00
8.125e-01,3.979e+00
8.175e-01,4.008e+00
8.225e-01,4.029e+00
8.275e-01,4.039e+00
8.325e-01,4.040e+00
8.375e-01,4.029e+00
8.425e-01,4.008e+00
8.475e-01,3.974e+00
8.525e-01,3.929e+00
8.575e-01,3.872e+00
8.625e-01,3.802e+00
8.675e-01,3.719e+00
8.725e-01,3.623e+00
8.775e-01,3.515e+00
8.825e-01,3.395e+00
8.875e-01,3.262e+00
8.925e-01,3.118e+00
8.975e-01,2.962e+00
9.025e-01,2.796e+00
9.075e-01,2.621e+00
9.125e-01,2.438e+00
9.175e-01,2.248e+00
9.225e-01,2.053e+00
9.275e-01,1.854e+00
9.325e-01,1.654e+00
9.375e-01,1.454e+00
9.425e-01,1.257e+00
9.475e-01,1.066e+00
9.525e-01,8.831e-01
9.575e-01,7.108e-01
9.625e-01,5.521e-01
9.675e-01,4.097e-01
9.725e-01,2.862e-01
9.775e-01,1.837e-01
9.825e-01,1.039e-01
9.875e-01,4.751e-02
9.925e-01,1.414e-02
9.975e-01,1.007e-03
