transmittance,probability_density
1.996e-03,5.099e-04
5.988e-03,5.706e-03
9.980e-03,1.811e-02
1.397e-02,3.868e-02
1.796e-02,6.768e-02
2.196e-02,1.050e-01
2.595e-02,1.502e-01
2.994e-02,2.026e-01
3.393e-02,2.616e-01
3.792e-02,3.263e-01
4.191e-02,3.960e-01
4.591e-02,4.699e-01
4.990e-02,5.472e-01
5.389e-02,6.273e-01
5.788e-02,7.096e-01
6.187e-02,7.935e-01
6.587e-02,8.785e-01
6.986e-02,9.640e-01
7.385e-02,1.050e+00
7.784e-02,1.135e+00
8.183e-02,1.220e+00
8.583e-02,1.304e+00
8.982e-02,1.387e+00
9.381e-02,1.468e+00
9.780e-02,1.548e+00
1.018e-01,1.625e+00
1.058e-01,1.701e+00
1.098e-01,1.774e+00
1.138e-01,1.845e+00
1.178e-01,1.914e+00
1.218e-01,1.980e+00
1.257e-01,2.044e+00
1.297e-01,2.105e+00
1.337e-01,2.163e+00
1.377e-01,2.218e+00
1.417e-01,2.271e+00
1.457e-01,2.321e+00
1.497e-01,2.368e+00
1.537e-01,2.412e+00
1.577e-01,2.453e+00
1.617e-01,2.492e+00
1.657e-01,2.528e+00
1.697e-01,2.561e+00
1.736e-01,2.591e+00
1.776e-01,2.619e+00
1.816e-01,2.644e+00
1.856e-01,2.667e+00
1.896e-01,2.687e+00
1.936e-01,2.705e+00
1.976e-01,2.721e+00
2.016e-01,2.734e+00
2.056e-01,2.744e+00
2.096e-01,2.753e+00
2.136e-01,2.759e+00
2.176e-01,2.764e+00
2.216e-01,2.766e+00
2.255e-01,2.766e+00
2.295e-01,2.764e+00
2.335e-01,2.761e+00
2.375e-01,2.756e+00
2.415e-01,2.749e+00
2.455e-01,2.740e+00
2.495e-01,2.730e+00
2.535e-01,2.718e+00
2.575e-01,2.705e+00
2.615e-01,2.690e+00
2.655e-01,2.675e+00
2.695e-01,2.657e+00
2.734e-01,2.639e+00
2.774e-01,2.619e+00
2.814e-01,2.598e+00
2.854e-01,2.577e+00
2.894e-01,2.554e+00
2.934e-01,2.530e+00
2.974e-01,2.505e+00
3.014e-01,2.480e+00
3.054e-01,2.453e+00
3.094e-01,2.426e+00
3.134e-01,2.398e+00
3.174e-01,2.370e+00
3.213e-01,2.341e+00
3.253e-01,2.311e+00
3.293e-01,2.281e+00
3.333e-01,2.250e+00
3.373e-01,2.219e+00
3.413e-01,2.188e+00
3.453e-01,2.156e+00
3.493e-01,2.124e+00
3.533e-01,2.091e+00
3.573e-01,2.059e+00
3.613e-01,2.026e+00
3.653e-01,1.992e+00
3.693e-01,1.959e+00
3.732e-01,1.926e+00
3.772e-01,1.892e+00
3.812e-01,1.859e+00
3.852e-01,1.825e+00
3.892e-01,1.791e+00
3.932e-01,1.758e+00
3.972e-01,1.724e+00
4.012e-01,1.691e+00
4.052e-01,1.657e+00
4.092e-01,1.624e+00
4.132e-01,1.591e+00
4.172e-01,1.558e+00
4.211e-01,1.525e+00
4.251e-01,1.492e+00
4.291e-01,1.460e+00
4.331e-01,1.428e+00
4.371e-01,1.396e+00
4.411e-01,1.364e+00
4.451e-01,1.332e+00
4.491e-01,1.301e+00
4.531e-01,1.270e+00
4.571e-01,1.240e+00
4.611e-01,1.210e+00
4.651e-01,1.180e+00
4.690e-01,1.150e+00
4.730e-01,1.121e+00
4.770e-01,1.092e+00
4.810e-01,1.063e+00
4.850e-01,1.035e+00
4.890e-01,1.008e+00
4.930e-01,9.803e-01
4.970e-01,9.533e-01
5.010e-01,9.268e-01
5.050e-01,9.007e-01
5.090e-01,8.750e-01
5.130e-01,8.497e-01
5.170e-01,8.248e-01
5.209e-01,8.004e-01
5.249e-01,7.764e-01
5.289e-01,7.528e-01
5.329e-01,7.297e-01
5.369e-01,7.070e-01
5.409e-01,6.847e-01
5.449e-01,6.629e-01
5.489e-01,6.415e-01
5.529e-01,6.205e-01
5.569e-01,6.000e-01
5.609e-01,5.799e-01
5.649e-01,5.602e-01
5.688e-01,5.410e-01
5.728e-01,5.222e-01
5.768e-01,5.038e-01
5.808e-01,4.859e-01
5.848e-01,4.684e-01
5.888e-01,4.513e-01
5.928e-01,4.346e-01
5.968e-01,4.184e-01
6.008e-01,4.025e-01
6.048e-01,3.871e-01
6.088e-01,3.721e-01
6.128e-01,3.575e-01
6.167e-01,3.433e-01
6.207e-01,3.294e-01
6.247e-01,3.160e-01
6.287e-01,3.029e-01
6.327e-01,2.903e-01
6.367e-01,2.779e-01
6.407e-01,2.660e-01
6.447e-01,2.544e-01
6.487e-01,2.432e-01
6.527e-01,2.324e-01
6.567e-01,2.219e-01
6.607e-01,2.117e-01
6.647e-01,2.019e-01
6.686e-01,1.924e-01
6.726e-01,1.832e-01
6.766e-01,1.743e-01
6.806e-01,1.658e-01
6.846e-01,1.575e-01
6.886e-01,1.496e-01
6.926e-01,1.419e-01
6.966e-01,1.346e-01
7.006e-01,1.275e-01
7.046e-01,1.207e-01
7.086e-01,1.141e-01
7.126e-01,1.078e-01
7.165e-01,1.018e-01
7.205e-01,9.606e-02
7.245e-01,9.053e-02
7.285e-01,8.524e-02
7.325e-01,8.018e-02
7.365e-01,7.535e-02
7.405e-01,7.074e-02
7.445e-01,6.633e-02
7.485e-01,6.214e-02
7.525e-01,5.814e-02
7.565e-01,5.434e-02
7.605e-01,5.072e-02
7.644e-01,4.729e-02
7.684e-01,4.403e-02
7.724e-01,4.095e-02
7.764e-01,3.803e-02
7.804e-01,3.526e-02
7.844e-01,3.265e-02
7.884e-01,3.019e-02
7.924e-01,2.787e-02
7.964e-01,2.569e-02
