transmittance,probability_density
1.061e-03,0.000e+00
3.184e-03,0.000e+00
5.306e-03,0.000e+00
7.429e-03,0.000e+00
9.551e-03,0.000e+00
1.167e-02,0.000e+00
1.380e-02,0.000e+00
1.592e-02,0.000e+00
1.804e-02,0.000e+00
2.016e-02,1.147e-03
2.229e-02,0.000e+00
2.441e-02,2.294e-03
2.653e-02,2.294e-03
2.865e-02,0.000e+00
3.078e-02,2.294e-03
3.290e-02,1.147e-03
3.502e-02,1.032e-02
3.714e-02,1.262e-02
3.927e-02,2.179e-02
4.139e-02,3.900e-02
4.351e-02,5.047e-02
4.563e-02,6.308e-02
4.776e-02,1.021e-01
4.988e-02,1.285e-01
5.200e-02,1.686e-01
5.412e-02,2.455e-01
5.624e-02,2.879e-01
5.837e-02,4.175e-01
6.049e-02,5.276e-01
6.261e-02,6.251e-01
6.473e-02,8.121e-01
6.686e-02,9.658e-01
6.898e-02,1.132e+00
7.110e-02,1.331e+00
7.322e-02,1.761e+00
7.535e-02,1.952e+00
7.747e-02,2.235e+00
7.959e-02,2.581e+00
8.171e-02,2.998e+00
8.384e-02,3.382e+00
8.596e-02,3.876e+00
8.808e-02,4.449e+00
9.020e-02,4.864e+00
9.233e-02,5.192e+00
9.445e-02,5.580e+00
9.657e-02,6.233e+00
9.869e-02,6.752e+00
1.008e-01,7.130e+00
1.029e-01,8.055e+00
1.051e-01,8.060e+00
1.072e-01,8.557e+00
1.093e-01,8.967e+00
1.114e-01,9.381e+00
1.136e-01,9.933e+00
1.157e-01,9.983e+00
1.178e-01,1.019e+01
1.199e-01,1.056e+01
1.220e-01,1.119e+01
1.242e-01,1.105e+01
1.263e-01,1.096e+01
1.284e-01,1.117e+01
1.305e-01,1.101e+01
1.327e-01,1.162e+01
1.348e-01,1.118e+01
1.369e-01,1.098e+01
1.390e-01,1.082e+01
1.411e-01,1.121e+01
1.433e-01,1.045e+01
1.454e-01,1.018e+01
1.475e-01,1.001e+01
1.496e-01,9.647e+00
1.518e-01,9.969e+00
1.539e-01,9.286e+00
1.560e-01,9.026e+00
1.581e-01,8.663e+00
1.602e-01,8.612e+00
1.624e-01,8.015e+00
1.645e-01,7.575e+00
1.666e-01,7.398e+00
1.687e-01,6.904e+00
1.709e-01,6.797e+00
1.730e-01,6.133e+00
1.751e-01,5.980e+00
1.772e-01,5.514e+00
1.793e-01,5.500e+00
1.815e-01,4.954e+00
1.836e-01,4.646e+00
1.857e-01,4.278e+00
1.878e-01,4.070e+00
1.900e-01,4.050e+00
1.921e-01,3.501e+00
1.942e-01,3.315e+00
1.963e-01,3.049e+00
1.984e-01,2.912e+00
2.006e-01,2.612e+00
2.027e-01,2.394e+00
2.048e-01,2.268e+00
2.069e-01,2.170e+00
2.091e-01,1.896e+00
2.112e-01,1.746e+00
2.133e-01,1.591e+00
2.154e-01,1.420e+00
2.176e-01,1.372e+00
2.197e-01,1.216e+00
2.218e-01,1.056e+00
2.239e-01,1.019e+00
2.260e-01,9.153e-01
2.282e-01,8.453e-01
2.303e-01,7.582e-01
2.324e-01,7.066e-01
2.345e-01,6.263e-01
2.367e-01,5.334e-01
2.388e-01,5.299e-01
2.409e-01,4.473e-01
2.430e-01,3.739e-01
2.451e-01,3.751e-01
2.473e-01,3.682e-01
2.494e-01,3.143e-01
2.515e-01,2.546e-01
2.536e-01,2.523e-01
2.558e-01,2.581e-01
2.579e-01,1.938e-01
2.600e-01,1.503e-01
2.621e-01,1.434e-01
2.642e-01,1.319e-01
2.664e-01,1.078e-01
2.685e-01,1.090e-01
2.706e-01,9.405e-02
2.727e-01,7.455e-02
2.749e-01,6.997e-02
2.770e-01,6.423e-02
2.791e-01,4.703e-02
2.812e-01,5.735e-02
2.833e-01,3.900e-02
2.855e-01,4.244e-02
2.876e-01,3.212e-02
2.897e-01,3.670e-02
2.918e-01,2.982e-02
2.940e-01,2.179e-02
2.961e-01,2.523e-02
2.982e-01,9.176e-03
3.003e-01,9.176e-03
3.024e-01,1.262e-02
3.046e-01,1.262e-02
3.067e-01,4.588e-03
3.088e-01,4.588e-03
3.109e-01,6.882e-03
3.131e-01,1.032e-02
3.152e-01,5.735e-03
3.173e-01,4.588e-03
3.194e-01,5.735e-03
3.216e-01,4.588e-03
3.237e-01,2.294e-03
3.258e-01,6.882e-03
3.279e-01,1.147e-03
3.300e-01,0.000e+00
3.322e-01,2.294e-03
3.343e-01,4.588e-03
3.364e-01,1.147e-03
3.385e-01,4.588e-03
3.407e-01,2.294e-03
3.428e-01,0.000e+00
3.449e-01,1.147e-03
3.470e-01,1.147e-03
3.491e-01,1.147e-03
3.513e-01,0.000e+00
3.534e-01,0.000e+00
3.555e-01,1.147e-03
3.576e-01,1.147e-03
3.598e-01,1.147e-03
3.619e-01,1.147e-03
3.640e-01,0.000e+00
3.661e-01,0.000e+00
3.682e-01,1.147e-03
3.704e-01,0.000e+00
3.725e-01,0.000e+00
3.746e-01,0.000e+00
3.767e-01,0.000e+00
3.789e-01,0.000e+00
3.810e-01,0.000e+00
3.831e-01,0.000e+00
3.852e-01,1.147e-03
3.873e-01,0.000e+00
3.895e-01,0.000e+00
3.916e-01,0.000e+00
3.937e-01,0.000e+00
3.958e-01,0.000e+00
3.980e-01,0.000e+00
4.001e-01,0.000e+00
4.022e-01,0.000e+00
4.043e-01,0.000e+00
4.064e-01,0.000e+00
4.086e-01,0.000e+00
4.107e-01,0.000e+00
4.128e-01,0.000e+00
4.149e-01,0.000e+00
4.171e-01,0.000e+00
4.192e-01,0.000e+00
4.213e-01,0.000e+00
4.234e-01,0.000e+00
