transmittance,probability_density
1.103e-04,0.000e+00
3.308e-04,0.000e+00
5.514e-04,0.000e+00
7.719e-04,0.000e+00
9.925e-04,1.104e-02
1.213e-03,0.000e+00
1.434e-03,2.208e-02
1.654e-03,1.104e-02
1.875e-03,2.208e-02
2.095e-03,3.311e-02
2.316e-03,1.656e-01
2.536e-03,2.649e-01
2.757e-03,3.863e-01
2.977e-03,5.740e-01
3.198e-03,9.051e-01
3.419e-03,1.258e+00
3.639e-03,1.854e+00
3.860e-03,2.815e+00
4.080e-03,3.919e+00
4.301e-03,4.813e+00
4.521e-03,7.075e+00
4.742e-03,8.676e+00
4.962e-03,1.098e+01
5.183e-03,1.317e+01
5.403e-03,1.605e+01
5.624e-03,1.986e+01
5.845e-03,2.376e+01
6.065e-03,2.845e+01
6.286e-03,3.247e+01
6.506e-03,3.810e+01
6.727e-03,4.294e+01
6.947e-03,4.861e+01
7.168e-03,5.304e+01
7.388e-03,5.920e+01
7.609e-03,6.535e+01
7.830e-03,7.006e+01
8.050e-03,7.390e+01
8.271e-03,8.165e+01
8.491e-03,8.603e+01
8.712e-03,8.930e+01
8.932e-03,9.598e+01
9.153e-03,9.746e+01
9.373e-03,1.014e+02
9.594e-03,1.044e+02
9.814e-03,1.057e+02
1.004e-02,1.081e+02
1.026e-02,1.116e+02
1.048e-02,1.102e+02
1.070e-02,1.129e+02
1.092e-02,1.148e+02
1.114e-02,1.113e+02
1.136e-02,1.098e+02
1.158e-02,1.093e+02
1.180e-02,1.099e+02
1.202e-02,1.113e+02
1.224e-02,1.034e+02
1.246e-02,1.018e+02
1.268e-02,1.018e+02
1.290e-02,9.571e+01
1.312e-02,9.151e+01
1.334e-02,8.946e+01
1.356e-02,8.613e+01
1.378e-02,8.256e+01
1.400e-02,7.893e+01
1.423e-02,7.671e+01
1.445e-02,7.262e+01
1.467e-02,6.946e+01
1.489e-02,6.606e+01
1.511e-02,6.170e+01
1.533e-02,5.897e+01
1.555e-02,5.717e+01
1.577e-02,5.272e+01
1.599e-02,5.253e+01
1.621e-02,4.723e+01
1.643e-02,4.403e+01
1.665e-02,4.136e+01
1.687e-02,3.914e+01
1.709e-02,3.573e+01
1.731e-02,3.487e+01
1.753e-02,3.083e+01
1.775e-02,2.863e+01
1.797e-02,2.718e+01
1.820e-02,2.498e+01
1.842e-02,2.215e+01
1.864e-02,2.163e+01
1.886e-02,2.009e+01
1.908e-02,1.889e+01
1.930e-02,1.745e+01
1.952e-02,1.571e+01
1.974e-02,1.448e+01
1.996e-02,1.336e+01
2.018e-02,1.212e+01
2.040e-02,1.173e+01
2.062e-02,9.680e+00
2.084e-02,9.404e+00
2.106e-02,8.709e+00
2.128e-02,7.495e+00
2.150e-02,7.296e+00
2.172e-02,6.270e+00
2.194e-02,6.027e+00
2.217e-02,5.475e+00
2.239e-02,4.978e+00
2.261e-02,4.592e+00
2.283e-02,4.448e+00
2.305e-02,3.687e+00
2.327e-02,3.444e+00
2.349e-02,3.223e+00
2.371e-02,3.356e+00
2.393e-02,2.572e+00
2.415e-02,2.197e+00
2.437e-02,2.241e+00
2.459e-02,1.645e+00
2.481e-02,1.744e+00
2.503e-02,1.523e+00
2.525e-02,1.302e+00
2.547e-02,1.358e+00
2.569e-02,1.126e+00
2.591e-02,1.027e+00
2.614e-02,7.837e-01
2.636e-02,7.506e-01
2.658e-02,5.961e-01
2.680e-02,7.285e-01
2.702e-02,7.396e-01
2.724e-02,4.746e-01
2.746e-02,4.857e-01
2.768e-02,4.857e-01
2.790e-02,2.980e-01
2.812e-02,2.539e-01
2.834e-02,3.532e-01
2.856e-02,2.208e-01
2.878e-02,2.980e-01
2.900e-02,2.318e-01
2.922e-02,2.097e-01
2.944e-02,1.104e-01
2.966e-02,2.318e-01
2.988e-02,1.325e-01
3.011e-02,9.934e-02
3.033e-02,1.104e-01
3.055e-02,8.830e-02
3.077e-02,1.214e-01
3.099e-02,1.325e-01
3.121e-02,9.934e-02
3.143e-02,9.934e-02
3.165e-02,5.519e-02
3.187e-02,4.415e-02
3.209e-02,5.519e-02
3.231e-02,3.311e-02
3.253e-02,3.311e-02
3.275e-02,1.104e-02
3.297e-02,1.104e-02
3.319e-02,0.000e+00
3.341e-02,4.415e-02
3.363e-02,3.311e-02
3.385e-02,4.415e-02
3.407e-02,0.000e+00
3.430e-02,1.104e-02
3.452e-02,3.311e-02
3.474e-02,0.000e+00
3.496e-02,2.208e-02
3.518e-02,2.208e-02
3.540e-02,2.208e-02
3.562e-02,0.000e+00
3.584e-02,0.000e+00
3.606e-02,0.000e+00
3.628e-02,0.000e+00
3.650e-02,0.000e+00
3.672e-02,0.000e+00
3.694e-02,1.104e-02
3.716e-02,1.104e-02
3.738e-02,2.208e-02
3.760e-02,0.000e+00
3.782e-02,0.000e+00
3.804e-02,1.104e-02
3.827e-02,0.000e+00
3.849e-02,0.000e+00
3.871e-02,0.000e+00
3.893e-02,0.000e+00
3.915e-02,0.000e+00
3.937e-02,0.000e+00
3.959e-02,0.000e+00
3.981e-02,0.000e+00
4.003e-02,1.104e-02
4.025e-02,0.000e+00
4.047e-02,0.000e+00
4.069e-02,0.000e+00
4.091e-02,0.000e+00
4.113e-02,0.000e+00
4.135e-02,0.000e+00
4.157e-02,0.000e+00
4.179e-02,0.000e+00
4.201e-02,0.000e+00
4.224e-02,0.000e+00
4.246e-02,0.000e+00
4.268e-02,0.000e+00
4.290e-02,0.000e+00
4.312e-02,0.000e+00
4.334e-02,0.000e+00
4.356e-02,0.000e+00
4.378e-02,0.000e+00
4.400e-02,0.000e+00
