transmittance,probability_density
2.500e-03,6.394e-05
7.500e-03,1.458e-03
1.250e-02,5.546e-03
1.750e-02,1.241e-02
2.250e-02,2.148e-02
2.750e-02,3.200e-02
3.250e-02,4.331e-02
3.750e-02,5.486e-02
4.250e-02,6.632e-02
4.750e-02,7.747e-02
5.250e-02,8.822e-02
5.750e-02,9.858e-02
6.250e-02,1.086e-01
6.750e-02,1.183e-01
7.250e-02,1.277e-01
7.750e-02,1.370e-01
8.250e-02,1.461e-01
8.750e-02,1.552e-01
9.250e-02,1.642e-01
9.750e-02,1.731e-01
1.025e-01,1.820e-01
1.075e-01,1.909e-01
1.125e-01,1.996e-01
1.175e-01,2.083e-01
1.225e-01,2.170e-01
1.275e-01,2.255e-01
1.325e-01,2.339e-01
1.375e-01,2.421e-01
1.425e-01,2.503e-01
1.475e-01,2.582e-01
1.525e-01,2.661e-01
1.575e-01,2.738e-01
1.625e-01,2.813e-01
1.675e-01,2.887e-01
1.725e-01,2.959e-01
1.775e-01,3.031e-01
1.825e-01,3.101e-01
1.875e-01,3.170e-01
1.925e-01,3.239e-01
1.975e-01,3.306e-01
2.025e-01,3.374e-01
2.075e-01,3.441e-01
2.125e-01,3.508e-01
2.175e-01,3.576e-01
2.225e-01,3.643e-01
2.275e-01,3.712e-01
2.325e-01,3.782e-01
2.375e-01,3.852e-01
2.425e-01,3.925e-01
2.475e-01,3.998e-01
2.525e-01,4.074e-01
2.575e-01,4.153e-01
2.625e-01,4.234e-01
2.675e-01,4.317e-01
2.725e-01,4.404e-01
2.775e-01,4.494e-01
2.825e-01,4.588e-01
2.875e-01,4.685e-01
2.925e-01,4.787e-01
2.975e-01,4.893e-01
3.025e-01,5.003e-01
3.075e-01,5.119e-01
3.125e-01,5.239e-01
3.175e-01,5.365e-01
3.225e-01,5.496e-01
3.275e-01,5.633e-01
3.325e-01,5.775e-01
3.375e-01,5.924e-01
3.425e-01,6.078e-01
3.475e-01,6.239e-01
3.525e-01,6.406e-01
3.575e-01,6.579e-01
3.625e-01,6.758e-01
3.675e-01,6.945e-01
3.725e-01,7.138e-01
3.775e-01,7.337e-01
3.825e-01,7.544e-01
3.875e-01,7.757e-01
3.925e-01,7.977e-01
3.975e-01,8.204e-01
4.025e-01,8.438e-01
4.075e-01,8.680e-01
4.125e-01,8.928e-01
4.175e-01,9.184e-01
4.225e-01,9.448e-01
4.275e-01,9.719e-01
4.325e-01,9.999e-01
4.375e-01,1.029e+00
4.425e-01,1.058e+00
4.475e-01,1.089e+00
4.525e-01,1.120e+00
4.575e-01,1.152e+00
4.625e-01,1.185e+00
4.675e-01,1.220e+00
4.725e-01,1.255e+00
4.775e-01,1.291e+00
4.825e-01,1.329e+00
4.875e-01,1.367e+00
4.925e-01,1.407e+00
4.975e-01,1.449e+00
5.025e-01,1.491e+00
5.075e-01,1.535e+00
5.125e-01,1.581e+00
5.175e-01,1.628e+00
5.225e-01,1.676e+00
5.275e-01,1.726e+00
5.325e-01,1.778e+00
5.375e-01,1.832e+00
5.425e-01,1.887e+00
5.475e-01,1.944e+00
5.525e-01,2.002e+00
5.575e-01,2.062e+00
5.625e-01,2.124e+00
5.675e-01,2.187e+00
5.725e-01,2.251e+00
5.775e-01,2.316e+00
5.825e-01,2.383e+00
5.875e-01,2.450e+00
5.925e-01,2.518e+00
5.975e-01,2.586e+00
6.025e-01,2.654e+00
6.075e-01,2.721e+00
6.125e-01,2.787e+00
6.175e-01,2.852e+00
6.225e-01,2.915e+00
6.275e-01,2.975e+00
6.325e-01,3.032e+00
6.375e-01,3.085e+00
6.425e-01,3.134e+00
6.475e-01,3.178e+00
6.525e-01,3.216e+00
6.575e-01,3.248e+00
6.625e-01,3.272e+00
6.675e-01,3.289e+00
6.725e-01,3.298e+00
6.775e-01,3.298e+00
6.825e-01,3.288e+00
6.875e-01,3.269e+00
6.925e-01,3.239e+00
6.975e-01,3.199e+00
7.025e-01,3.149e+00
7.075e-01,3.088e+00
7.125e-01,3.018e+00
7.175e-01,2.937e+00
7.225e-01,2.846e+00
7.275e-01,2.746e+00
7.325e-01,2.638e+00
7.375e-01,2.522e+00
7.425e-01,2.400e+00
7.475e-01,2.272e+00
7.525e-01,2.139e+00
7.575e-01,2.003e+00
7.625e-01,1.865e+00
7.675e-01,1.726e+00
7.725e-01,1.587e+00
7.775e-01,1.450e+00
7.825e-01,1.315e+00
7.875e-01,1.185e+00
7.925e-01,1.059e+00
7.975e-01,9.399e-01
8.025e-01,8.269e-01
8.075e-01,7.213e-01
8.125e-01,6.235e-01
8.175e-01,5.339e-01
8.225e-01,4.525e-01
8.275e-01,3.796e-01
8.325e-01,3.148e-01
8.375e-01,2.581e-01
8.425e-01,2.089e-01
8.475e-01,1.669e-01
8.525e-01,1.314e-01
8.575e-01,1.020e-01
8.625e-01,7.785e-02
8.675e-01,5.842e-02
8.725e-01,4.304e-02
8.775e-01,3.108e-02
8.825e-01,2.197e-02
8.875e-01,1.517e-02
8.925e-01,1.021e-02
8.975e-01,6.684e-03
9.025e-01,4.245e-03
9.075e-01,2.607e-03
9.125e-01,1.542e-03
9.175e-01,8.753e-04
9.225e-01,4.741e-04
9.275e-01,2.436e-04
9.325e-01,1.179e-04
9.375e-01,5.319e-05
9.425e-01,2.214e-05
9.475e-01,8.379e-06
9.525e-01,2.827e-06
9.575e-01,8.297e-07
9.625e-01,2.044e-07
9.675e-01,4.024e-08
9.725e-01,5.871e-09
9.775e-01,5.627e-10
9.825e-01,2.865e-11
9.875e-01,5.040e-13
9.925e-01,1.008e-15
9.975e-01,1.327e-21
