transmittance,probability_density
2.500e-03,3.919e-08
7.500e-03,4.547e-06
1.250e-02,3.788e-05
1.750e-02,1.445e-04
2.250e-02,3.765e-04
2.750e-02,7.816e-04
3.250e-02,1.396e-03
3.750e-02,2.241e-03
4.250e-02,3.322e-03
4.750e-02,4.630e-03
5.250e-02,6.146e-03
5.750e-02,7.842e-03
6.250e-02,9.689e-03
6.750e-02,1.166e-02
7.250e-02,1.371e-02
7.750e-02,1.583e-02
8.250e-02,1.799e-02
8.750e-02,2.018e-02
9.250e-02,2.238e-02
9.750e-02,2.459e-02
1.025e-01,2.679e-02
1.075e-01,2.900e-02
1.125e-01,3.122e-02
1.175e-01,3.343e-02
1.225e-01,3.566e-02
1.275e-01,3.789e-02
1.325e-01,4.014e-02
1.375e-01,4.241e-02
1.425e-01,4.469e-02
1.475e-01,4.700e-02
1.525e-01,4.932e-02
1.575e-01,5.166e-02
1.625e-01,5.403e-02
1.675e-01,5.641e-02
1.725e-01,5.881e-02
1.775e-01,6.123e-02
1.825e-01,6.368e-02
1.875e-01,6.614e-02
1.925e-01,6.864e-02
1.975e-01,7.117e-02
2.025e-01,7.373e-02
2.075e-01,7.634e-02
2.125e-01,7.899e-02
2.175e-01,8.171e-02
2.225e-01,8.449e-02
2.275e-01,8.734e-02
2.325e-01,9.026e-02
2.375e-01,9.328e-02
2.425e-01,9.639e-02
2.475e-01,9.960e-02
2.525e-01,1.029e-01
2.575e-01,1.064e-01
2.625e-01,1.099e-01
2.675e-01,1.136e-01
2.725e-01,1.173e-01
2.775e-01,1.213e-01
2.825e-01,1.253e-01
2.875e-01,1.294e-01
2.925e-01,1.337e-01
2.975e-01,1.381e-01
3.025e-01,1.426e-01
3.075e-01,1.472e-01
3.125e-01,1.520e-01
3.175e-01,1.568e-01
3.225e-01,1.618e-01
3.275e-01,1.669e-01
3.325e-01,1.720e-01
3.375e-01,1.773e-01
3.425e-01,1.827e-01
3.475e-01,1.882e-01
3.525e-01,1.938e-01
3.575e-01,1.995e-01
3.625e-01,2.054e-01
3.675e-01,2.113e-01
3.725e-01,2.174e-01
3.775e-01,2.237e-01
3.825e-01,2.301e-01
3.875e-01,2.367e-01
3.925e-01,2.434e-01
3.975e-01,2.503e-01
4.025e-01,2.575e-01
4.075e-01,2.649e-01
4.125e-01,2.725e-01
4.175e-01,2.804e-01
4.225e-01,2.885e-01
4.275e-01,2.970e-01
4.325e-01,3.058e-01
4.375e-01,3.150e-01
4.425e-01,3.246e-01
4.475e-01,3.346e-01
4.525e-01,3.451e-01
4.575e-01,3.561e-01
4.625e-01,3.676e-01
4.675e-01,3.796e-01
4.725e-01,3.923e-01
4.775e-01,4.056e-01
4.825e-01,4.196e-01
4.875e-01,4.344e-01
4.925e-01,4.499e-01
4.975e-01,4.663e-01
5.025e-01,4.836e-01
5.075e-01,5.018e-01
5.125e-01,5.211e-01
5.175e-01,5.414e-01
5.225e-01,5.628e-01
5.275e-01,5.855e-01
5.325e-01,6.094e-01
5.375e-01,6.347e-01
5.425e-01,6.614e-01
5.475e-01,6.896e-01
5.525e-01,7.193e-01
5.575e-01,7.508e-01
5.625e-01,7.840e-01
5.675e-01,8.190e-01
5.725e-01,8.560e-01
5.775e-01,8.950e-01
5.825e-01,9.363e-01
5.875e-01,9.798e-01
5.925e-01,1.026e+00
5.975e-01,1.074e+00
6.025e-01,1.125e+00
6.075e-01,1.179e+00
6.125e-01,1.236e+00
6.175e-01,1.297e+00
6.225e-01,1.360e+00
6.275e-01,1.427e+00
6.325e-01,1.498e+00
6.375e-01,1.574e+00
6.425e-01,1.653e+00
6.475e-01,1.737e+00
6.525e-01,1.826e+00
6.575e-01,1.920e+00
6.625e-01,2.020e+00
6.675e-01,2.125e+00
6.725e-01,2.237e+00
6.775e-01,2.355e+00
6.825e-01,2.479e+00
6.875e-01,2.610e+00
6.925e-01,2.748e+00
6.975e-01,2.892e+00
7.025e-01,3.043e+00
7.075e-01,3.200e+00
7.125e-01,3.362e+00
7.175e-01,3.530e+00
7.225e-01,3.701e+00
7.275e-01,3.875e+00
7.325e-01,4.049e+00
7.375e-01,4.221e+00
7.425e-01,4.390e+00
7.475e-01,4.552e+00
7.525e-01,4.703e+00
7.575e-01,4.841e+00
7.625e-01,4.962e+00
7.675e-01,5.062e+00
7.725e-01,5.136e+00
7.775e-01,5.181e+00
7.825e-01,5.193e+00
7.875e-01,5.170e+00
7.925e-01,5.108e+00
7.975e-01,5.007e+00
8.025e-01,4.865e+00
8.075e-01,4.683e+00
8.125e-01,4.463e+00
8.175e-01,4.208e+00
8.225e-01,3.922e+00
8.275e-01,3.611e+00
8.325e-01,3.281e+00
8.375e-01,2.941e+00
8.425e-01,2.596e+00
8.475e-01,2.256e+00
8.525e-01,1.927e+00
8.575e-01,1.616e+00
8.625e-01,1.329e+00
8.675e-01,1.070e+00
8.725e-01,8.420e-01
8.775e-01,6.467e-01
8.825e-01,4.838e-01
8.875e-01,3.516e-01
8.925e-01,2.477e-01
8.975e-01,1.687e-01
9.025e-01,1.106e-01
9.075e-01,6.962e-02
9.125e-01,4.186e-02
9.175e-01,2.393e-02
9.225e-01,1.292e-02
9.275e-01,6.542e-03
9.325e-01,3.080e-03
9.375e-01,1.333e-03
9.425e-01,5.236e-04
9.475e-01,1.834e-04
9.525e-01,5.604e-05
9.575e-01,1.451e-05
9.625e-01,3.055e-06
9.675e-01,4.945e-07
9.725e-01,5.649e-08
9.775e-01,3.974e-09
9.825e-01,1.358e-10
9.875e-01,1.398e-12
9.925e-01,1.278e-15
9.975e-01,3.836e-22
