transmittance,probability_density
2.520e-01,1.608e-18
2.557e-01,2.949e-18
2.595e-01,5.355e-18
2.632e-01,9.630e-18
2.670e-01,1.715e-17
2.707e-01,3.027e-17
2.745e-01,5.294e-17
2.782e-01,9.179e-17
2.820e-01,1.578e-16
2.857e-01,2.690e-16
2.895e-01,4.548e-16
2.932e-01,7.629e-16
2.970e-01,1.270e-15
3.007e-01,2.098e-15
3.045e-01,3.440e-15
3.082e-01,5.601e-15
3.120e-01,9.056e-15
3.157e-01,1.454e-14
3.195e-01,2.319e-14
3.232e-01,3.673e-14
3.270e-01,5.782e-14
3.307e-01,9.044e-14
3.345e-01,1.406e-13
3.382e-01,2.172e-13
3.420e-01,3.336e-13
3.457e-01,5.094e-13
3.495e-01,7.735e-13
3.532e-01,1.168e-12
3.570e-01,1.753e-12
3.607e-01,2.619e-12
3.645e-01,3.890e-12
3.682e-01,5.749e-12
3.720e-01,8.452e-12
3.757e-01,1.237e-11
3.795e-01,1.800e-11
3.832e-01,2.608e-11
3.869e-01,3.760e-11
3.907e-01,5.395e-11
3.944e-01,7.707e-11
3.982e-01,1.096e-10
4.019e-01,1.551e-10
4.057e-01,2.187e-10
4.094e-01,3.069e-10
4.132e-01,4.288e-10
4.169e-01,5.967e-10
4.207e-01,8.268e-10
4.244e-01,1.141e-09
4.282e-01,1.569e-09
4.319e-01,2.148e-09
4.357e-01,2.929e-09
4.394e-01,3.979e-09
4.432e-01,5.385e-09
4.469e-01,7.261e-09
4.507e-01,9.753e-09
4.544e-01,1.305e-08
4.582e-01,1.741e-08
4.619e-01,2.313e-08
4.657e-01,3.063e-08
4.694e-01,4.042e-08
4.732e-01,5.315e-08
4.769e-01,6.965e-08
4.807e-01,9.097e-08
4.844e-01,1.184e-07
4.882e-01,1.537e-07
4.919e-01,1.987e-07
4.957e-01,2.562e-07
4.994e-01,3.292e-07
5.032e-01,4.216e-07
5.069e-01,5.384e-07
5.107e-01,6.853e-07
5.144e-01,8.697e-07
5.182e-01,1.100e-06
5.219e-01,1.388e-06
5.257e-01,1.745e-06
5.294e-01,2.188e-06
5.332e-01,2.736e-06
5.369e-01,3.410e-06
5.407e-01,4.238e-06
5.444e-01,5.253e-06
5.482e-01,6.491e-06
5.519e-01,7.999e-06
5.557e-01,9.830e-06
5.594e-01,1.204e-05
5.632e-01,1.472e-05
5.669e-01,1.794e-05
5.707e-01,2.180e-05
5.744e-01,2.642e-05
5.782e-01,3.193e-05
5.819e-01,3.849e-05
5.857e-01,4.627e-05
5.894e-01,5.548e-05
5.932e-01,6.634e-05
5.969e-01,7.912e-05
6.007e-01,9.412e-05
6.044e-01,1.117e-04
6.082e-01,1.321e-04
6.119e-01,1.559e-04
6.157e-01,1.836e-04
6.194e-01,2.156e-04
6.232e-01,2.525e-04
6.269e-01,2.950e-04
6.307e-01,3.437e-04
6.344e-01,3.995e-04
6.382e-01,4.632e-04
6.419e-01,5.358e-04
6.457e-01,6.182e-04
6.494e-01,7.115e-04
6.532e-01,8.169e-04
6.569e-01,9.357e-04
6.607e-01,1.069e-03
6.644e-01,1.219e-03
6.682e-01,1.386e-03
6.719e-01,1.573e-03
6.757e-01,1.781e-03
6.794e-01,2.012e-03
6.832e-01,2.268e-03
6.869e-01,2.551e-03
6.907e-01,2.864e-03
6.944e-01,3.208e-03
6.982e-01,3.587e-03
7.019e-01,4.003e-03
7.057e-01,4.459e-03
7.094e-01,4.959e-03
7.132e-01,5.506e-03
7.169e-01,6.104e-03
7.207e-01,6.758e-03
7.244e-01,7.472e-03
7.282e-01,8.252e-03
7.319e-01,9.105e-03
7.357e-01,1.004e-02
7.394e-01,1.106e-02
7.432e-01,1.217e-02
7.469e-01,1.340e-02
7.507e-01,1.474e-02
7.544e-01,1.622e-02
7.582e-01,1.785e-02
7.619e-01,1.964e-02
7.657e-01,2.163e-02
7.694e-01,2.382e-02
7.732e-01,2.626e-02
7.769e-01,2.896e-02
7.807e-01,3.198e-02
7.844e-01,3.534e-02
7.882e-01,3.911e-02
7.919e-01,4.332e-02
7.956e-01,4.805e-02
7.994e-01,5.338e-02
8.031e-01,5.938e-02
8.069e-01,6.616e-02
8.106e-01,7.385e-02
8.144e-01,8.258e-02
8.181e-01,9.253e-02
8.219e-01,1.039e-01
8.256e-01,1.169e-01
8.294e-01,1.319e-01
8.331e-01,1.491e-01
8.369e-01,1.691e-01
8.406e-01,1.922e-01
8.444e-01,2.191e-01
8.481e-01,2.506e-01
8.519e-01,2.873e-01
8.556e-01,3.305e-01
8.594e-01,3.814e-01
8.631e-01,4.415e-01
8.669e-01,5.127e-01
8.706e-01,5.976e-01
8.744e-01,6.992e-01
8.781e-01,8.216e-01
8.819e-01,9.702e-01
8.856e-01,1.152e+00
8.894e-01,1.377e+00
8.931e-01,1.658e+00
8.969e-01,2.014e+00
9.006e-01,2.468e+00
9.044e-01,3.055e+00
9.081e-01,3.820e+00
9.119e-01,4.828e+00
9.156e-01,6.169e+00
9.194e-01,7.966e+00
9.231e-01,1.039e+01
9.269e-01,1.363e+01
9.306e-01,1.783e+01
9.344e-01,2.288e+01
9.381e-01,2.811e+01
9.419e-01,3.201e+01
9.456e-01,3.258e+01
9.494e-01,2.848e+01
9.531e-01,2.052e+01
9.569e-01,1.165e+01
9.606e-01,4.965e+00
9.644e-01,1.504e+00
9.681e-01,3.057e-01
9.719e-01,3.950e-02
9.756e-01,3.153e-03
9.794e-01,1.593e-04
9.831e-01,5.266e-06
9.869e-01,1.009e-07
9.906e-01,7.194e-10
9.944e-01,6.056e-13
9.981e-01,4.028e-19
