transmittance,probability_density
1.876e-03,1.164e-64
5.628e-03,1.597e-41
9.380e-03,5.699e-30
1.313e-02,6.701e-23
1.688e-02,5.060e-18
2.064e-02,1.887e-14
2.439e-02,9.517e-12
2.814e-02,1.148e-09
3.189e-02,4.732e-08
3.564e-02,8.436e-07
3.940e-02,7.681e-06
4.315e-02,4.033e-05
4.690e-02,1.341e-04
5.065e-02,3.058e-04
5.441e-02,5.180e-04
5.816e-02,7.213e-04
6.191e-02,9.427e-04
6.566e-02,1.292e-03
6.941e-02,1.866e-03
7.317e-02,2.667e-03
7.692e-02,3.605e-03
8.067e-02,4.569e-03
8.442e-02,5.479e-03
8.817e-02,6.312e-03
9.193e-02,7.098e-03
9.568e-02,7.900e-03
9.943e-02,8.802e-03
1.032e-01,9.892e-03
1.069e-01,1.125e-02
1.107e-01,1.292e-02
1.144e-01,1.495e-02
1.182e-01,1.734e-02
1.219e-01,2.010e-02
1.257e-01,2.322e-02
1.294e-01,2.671e-02
1.332e-01,3.056e-02
1.370e-01,3.479e-02
1.407e-01,3.942e-02
1.445e-01,4.445e-02
1.482e-01,4.991e-02
1.520e-01,5.583e-02
1.557e-01,6.223e-02
1.595e-01,6.917e-02
1.632e-01,7.670e-02
1.670e-01,8.486e-02
1.707e-01,9.373e-02
1.745e-01,1.034e-01
1.782e-01,1.139e-01
1.820e-01,1.253e-01
1.857e-01,1.377e-01
1.895e-01,1.511e-01
1.932e-01,1.656e-01
1.970e-01,1.813e-01
2.007e-01,1.983e-01
2.045e-01,2.164e-01
2.082e-01,2.359e-01
2.120e-01,2.567e-01
2.157e-01,2.789e-01
2.195e-01,3.025e-01
2.232e-01,3.275e-01
2.270e-01,3.541e-01
2.308e-01,3.822e-01
2.345e-01,4.119e-01
2.383e-01,4.432e-01
2.420e-01,4.763e-01
2.458e-01,5.111e-01
2.495e-01,5.478e-01
2.533e-01,5.864e-01
2.570e-01,6.271e-01
2.608e-01,6.698e-01
2.645e-01,7.148e-01
2.683e-01,7.620e-01
2.720e-01,8.116e-01
2.758e-01,8.637e-01
2.795e-01,9.184e-01
2.833e-01,9.757e-01
2.870e-01,1.036e+00
2.908e-01,1.099e+00
2.945e-01,1.164e+00
2.983e-01,1.233e+00
3.020e-01,1.305e+00
3.058e-01,1.379e+00
3.095e-01,1.457e+00
3.133e-01,1.538e+00
3.171e-01,1.621e+00
3.208e-01,1.708e+00
3.246e-01,1.798e+00
3.283e-01,1.890e+00
3.321e-01,1.986e+00
3.358e-01,2.084e+00
3.396e-01,2.184e+00
3.433e-01,2.287e+00
3.471e-01,2.393e+00
3.508e-01,2.500e+00
3.546e-01,2.609e+00
3.583e-01,2.720e+00
3.621e-01,2.832e+00
3.658e-01,2.945e+00
3.696e-01,3.058e+00
3.733e-01,3.171e+00
3.771e-01,3.284e+00
3.808e-01,3.397e+00
3.846e-01,3.508e+00
3.883e-01,3.618e+00
3.921e-01,3.725e+00
3.958e-01,3.830e+00
3.996e-01,3.931e+00
4.034e-01,4.029e+00
4.071e-01,4.122e+00
4.109e-01,4.210e+00
4.146e-01,4.292e+00
4.184e-01,4.369e+00
4.221e-01,4.439e+00
4.259e-01,4.502e+00
4.296e-01,4.557e+00
4.334e-01,4.604e+00
4.371e-01,4.642e+00
4.409e-01,4.672e+00
4.446e-01,4.693e+00
4.484e-01,4.704e+00
4.521e-01,4.705e+00
4.559e-01,4.697e+00
4.596e-01,4.679e+00
4.634e-01,4.651e+00
4.671e-01,4.613e+00
4.709e-01,4.565e+00
4.746e-01,4.508e+00
4.784e-01,4.441e+00
4.821e-01,4.366e+00
4.859e-01,4.281e+00
4.896e-01,4.189e+00
4.934e-01,4.089e+00
4.972e-01,3.982e+00
5.009e-01,3.868e+00
5.047e-01,3.748e+00
5.084e-01,3.623e+00
5.122e-01,3.494e+00
5.159e-01,3.360e+00
5.197e-01,3.224e+00
5.234e-01,3.085e+00
5.272e-01,2.944e+00
5.309e-01,2.802e+00
5.347e-01,2.660e+00
5.384e-01,2.519e+00
5.422e-01,2.378e+00
5.459e-01,2.239e+00
5.497e-01,2.103e+00
5.534e-01,1.969e+00
5.572e-01,1.838e+00
5.609e-01,1.712e+00
5.647e-01,1.589e+00
5.684e-01,1.471e+00
5.722e-01,1.357e+00
5.759e-01,1.249e+00
5.797e-01,1.146e+00
5.835e-01,1.048e+00
5.872e-01,9.550e-01
5.910e-01,8.679e-01
5.947e-01,7.862e-01
5.985e-01,7.099e-01
6.022e-01,6.390e-01
6.060e-01,5.732e-01
6.097e-01,5.124e-01
6.135e-01,4.566e-01
6.172e-01,4.054e-01
6.210e-01,3.587e-01
6.247e-01,3.163e-01
6.285e-01,2.779e-01
6.322e-01,2.433e-01
6.360e-01,2.121e-01
6.397e-01,1.843e-01
6.435e-01,1.595e-01
6.472e-01,1.376e-01
6.510e-01,1.181e-01
6.547e-01,1.010e-01
6.585e-01,8.609e-02
6.622e-01,7.303e-02
6.660e-01,6.170e-02
6.697e-01,5.191e-02
6.735e-01,4.348e-02
6.773e-01,3.625e-02
6.810e-01,3.009e-02
6.848e-01,2.487e-02
6.885e-01,2.045e-02
6.923e-01,1.674e-02
6.960e-01,1.363e-02
6.998e-01,1.105e-02
7.035e-01,8.911e-03
7.073e-01,7.148e-03
7.110e-01,5.704e-03
7.148e-01,4.527e-03
7.185e-01,3.573e-03
7.223e-01,2.804e-03
7.260e-01,2.188e-03
7.298e-01,1.697e-03
7.335e-01,1.308e-03
7.373e-01,1.002e-03
7.410e-01,7.632e-04
7.448e-01,5.772e-04
7.485e-01,4.337e-04
