transmittance,probability_density
2.507e-04,3.980e-18
7.522e-04,1.187e-08
1.254e-03,2.824e-05
1.755e-03,1.044e-03
2.257e-03,5.141e-03
2.758e-03,8.556e-03
3.260e-03,1.120e-02
3.761e-03,2.041e-02
4.263e-03,3.770e-02
4.764e-03,5.874e-02
5.266e-03,8.031e-02
5.767e-03,1.030e-01
6.269e-03,1.298e-01
6.770e-03,1.630e-01
7.272e-03,2.041e-01
7.773e-03,2.531e-01
8.275e-03,3.099e-01
8.776e-03,3.743e-01
9.278e-03,4.468e-01
9.779e-03,5.283e-01
1.028e-02,6.201e-01
1.078e-02,7.235e-01
1.128e-02,8.399e-01
1.179e-02,9.705e-01
1.229e-02,1.116e+00
1.279e-02,1.278e+00
1.329e-02,1.457e+00
1.379e-02,1.652e+00
1.429e-02,1.865e+00
1.479e-02,2.096e+00
1.530e-02,2.345e+00
1.580e-02,2.612e+00
1.630e-02,2.898e+00
1.680e-02,3.203e+00
1.730e-02,3.528e+00
1.780e-02,3.875e+00
1.830e-02,4.243e+00
1.881e-02,4.633e+00
1.931e-02,5.047e+00
1.981e-02,5.486e+00
2.031e-02,5.949e+00
2.081e-02,6.439e+00
2.131e-02,6.956e+00
2.181e-02,7.500e+00
2.232e-02,8.072e+00
2.282e-02,8.673e+00
2.332e-02,9.301e+00
2.382e-02,9.958e+00
2.432e-02,1.064e+01
2.482e-02,1.135e+01
2.533e-02,1.209e+01
2.583e-02,1.286e+01
2.633e-02,1.365e+01
2.683e-02,1.446e+01
2.733e-02,1.529e+01
2.783e-02,1.614e+01
2.833e-02,1.700e+01
2.884e-02,1.788e+01
2.934e-02,1.877e+01
2.984e-02,1.967e+01
3.034e-02,2.058e+01
3.084e-02,2.148e+01
3.134e-02,2.238e+01
3.184e-02,2.328e+01
3.235e-02,2.416e+01
3.285e-02,2.503e+01
3.335e-02,2.588e+01
3.385e-02,2.671e+01
3.435e-02,2.751e+01
3.485e-02,2.828e+01
3.536e-02,2.901e+01
3.586e-02,2.971e+01
3.636e-02,3.036e+01
3.686e-02,3.097e+01
3.736e-02,3.153e+01
3.786e-02,3.203e+01
3.836e-02,3.248e+01
3.887e-02,3.287e+01
3.937e-02,3.320e+01
3.987e-02,3.347e+01
4.037e-02,3.368e+01
4.087e-02,3.382e+01
4.137e-02,3.390e+01
4.187e-02,3.391e+01
4.238e-02,3.386e+01
4.288e-02,3.375e+01
4.338e-02,3.357e+01
4.388e-02,3.334e+01
4.438e-02,3.304e+01
4.488e-02,3.268e+01
4.538e-02,3.228e+01
4.589e-02,3.181e+01
4.639e-02,3.130e+01
4.689e-02,3.074e+01
4.739e-02,3.014e+01
4.789e-02,2.950e+01
4.839e-02,2.883e+01
4.890e-02,2.812e+01
4.940e-02,2.738e+01
4.990e-02,2.661e+01
5.040e-02,2.583e+01
5.090e-02,2.502e+01
5.140e-02,2.421e+01
5.190e-02,2.338e+01
5.241e-02,2.254e+01
5.291e-02,2.170e+01
5.341e-02,2.086e+01
5.391e-02,2.001e+01
5.441e-02,1.918e+01
5.491e-02,1.835e+01
5.541e-02,1.753e+01
5.592e-02,1.672e+01
5.642e-02,1.593e+01
5.692e-02,1.515e+01
5.742e-02,1.439e+01
5.792e-02,1.365e+01
5.842e-02,1.293e+01
5.893e-02,1.222e+01
5.943e-02,1.155e+01
5.993e-02,1.089e+01
6.043e-02,1.026e+01
6.093e-02,9.650e+00
6.143e-02,9.066e+00
6.193e-02,8.506e+00
6.244e-02,7.971e+00
6.294e-02,7.460e+00
6.344e-02,6.973e+00
6.394e-02,6.509e+00
6.444e-02,6.069e+00
6.494e-02,5.652e+00
6.544e-02,5.257e+00
6.595e-02,4.884e+00
6.645e-02,4.532e+00
6.695e-02,4.201e+00
6.745e-02,3.889e+00
6.795e-02,3.597e+00
6.845e-02,3.322e+00
6.895e-02,3.065e+00
6.946e-02,2.825e+00
6.996e-02,2.601e+00
7.046e-02,2.392e+00
7.096e-02,2.198e+00
7.146e-02,2.017e+00
7.196e-02,1.849e+00
7.247e-02,1.693e+00
7.297e-02,1.549e+00
7.347e-02,1.416e+00
7.397e-02,1.293e+00
7.447e-02,1.179e+00
7.497e-02,1.075e+00
7.547e-02,9.783e-01
7.598e-02,8.897e-01
7.648e-02,8.084e-01
7.698e-02,7.338e-01
7.748e-02,6.655e-01
7.798e-02,6.030e-01
7.848e-02,5.459e-01
7.898e-02,4.937e-01
7.949e-02,4.461e-01
7.999e-02,4.027e-01
8.049e-02,3.632e-01
8.099e-02,3.274e-01
8.149e-02,2.948e-01
8.199e-02,2.652e-01
8.250e-02,2.384e-01
8.300e-02,2.141e-01
8.350e-02,1.921e-01
8.400e-02,1.722e-01
8.450e-02,1.543e-01
8.500e-02,1.381e-01
8.550e-02,1.235e-01
8.601e-02,1.104e-01
8.651e-02,9.860e-02
8.701e-02,8.798e-02
8.751e-02,7.845e-02
8.801e-02,6.989e-02
8.851e-02,6.222e-02
8.901e-02,5.535e-02
8.952e-02,4.920e-02
9.002e-02,4.370e-02
9.052e-02,3.879e-02
9.102e-02,3.440e-02
9.152e-02,3.049e-02
9.202e-02,2.700e-02
9.252e-02,2.390e-02
9.303e-02,2.113e-02
9.353e-02,1.868e-02
9.403e-02,1.649e-02
9.453e-02,1.455e-02
9.503e-02,1.284e-02
9.553e-02,1.131e-02
9.604e-02,9.963e-03
9.654e-02,8.768e-03
9.704e-02,7.712e-03
9.754e-02,6.778e-03
9.804e-02,5.953e-03
9.854e-02,5.226e-03
9.904e-02,4.584e-03
9.955e-02,4.019e-03
1.000e-01,3.521e-03
