transmittance,probability_density
1.170e-03,3.875e-36
3.510e-03,6.540e-21
5.851e-03,1.508e-14
8.191e-03,8.147e-11
1.053e-02,2.286e-08
1.287e-02,1.109e-06
1.521e-02,1.688e-05
1.755e-02,1.139e-04
1.989e-02,4.269e-04
2.223e-02,1.046e-03
2.457e-02,1.916e-03
2.691e-02,2.935e-03
2.925e-02,4.107e-03
3.159e-02,5.534e-03
3.393e-02,7.324e-03
3.627e-02,9.536e-03
3.861e-02,1.220e-02
4.095e-02,1.537e-02
4.329e-02,1.915e-02
4.563e-02,2.368e-02
4.798e-02,2.919e-02
5.032e-02,3.588e-02
5.266e-02,4.396e-02
5.500e-02,5.358e-02
5.734e-02,6.483e-02
5.968e-02,7.775e-02
6.202e-02,9.237e-02
6.436e-02,1.087e-01
6.670e-02,1.268e-01
6.904e-02,1.466e-01
7.138e-02,1.684e-01
7.372e-02,1.923e-01
7.606e-02,2.184e-01
7.840e-02,2.470e-01
8.074e-02,2.784e-01
8.308e-02,3.128e-01
8.542e-02,3.504e-01
8.776e-02,3.915e-01
9.010e-02,4.363e-01
9.244e-02,4.850e-01
9.478e-02,5.378e-01
9.712e-02,5.950e-01
9.946e-02,6.567e-01
1.018e-01,7.232e-01
1.041e-01,7.946e-01
1.065e-01,8.712e-01
1.088e-01,9.532e-01
1.112e-01,1.041e+00
1.135e-01,1.134e+00
1.158e-01,1.234e+00
1.182e-01,1.340e+00
1.205e-01,1.452e+00
1.229e-01,1.570e+00
1.252e-01,1.696e+00
1.275e-01,1.828e+00
1.299e-01,1.968e+00
1.322e-01,2.114e+00
1.346e-01,2.267e+00
1.369e-01,2.428e+00
1.392e-01,2.595e+00
1.416e-01,2.769e+00
1.439e-01,2.950e+00
1.463e-01,3.138e+00
1.486e-01,3.331e+00
1.509e-01,3.531e+00
1.533e-01,3.735e+00
1.556e-01,3.945e+00
1.580e-01,4.158e+00
1.603e-01,4.375e+00
1.626e-01,4.595e+00
1.650e-01,4.816e+00
1.673e-01,5.039e+00
1.697e-01,5.262e+00
1.720e-01,5.483e+00
1.743e-01,5.703e+00
1.767e-01,5.919e+00
1.790e-01,6.130e+00
1.814e-01,6.336e+00
1.837e-01,6.535e+00
1.860e-01,6.726e+00
1.884e-01,6.907e+00
1.907e-01,7.078e+00
1.931e-01,7.237e+00
1.954e-01,7.384e+00
1.978e-01,7.517e+00
2.001e-01,7.635e+00
2.024e-01,7.737e+00
2.048e-01,7.824e+00
2.071e-01,7.893e+00
2.095e-01,7.945e+00
2.118e-01,7.978e+00
2.141e-01,7.994e+00
2.165e-01,7.992e+00
2.188e-01,7.971e+00
2.212e-01,7.932e+00
2.235e-01,7.875e+00
2.258e-01,7.800e+00
2.282e-01,7.709e+00
2.305e-01,7.601e+00
2.329e-01,7.477e+00
2.352e-01,7.339e+00
2.375e-01,7.187e+00
2.399e-01,7.022e+00
2.422e-01,6.845e+00
2.446e-01,6.658e+00
2.469e-01,6.461e+00
2.492e-01,6.256e+00
2.516e-01,6.043e+00
2.539e-01,5.825e+00
2.563e-01,5.602e+00
2.586e-01,5.376e+00
2.609e-01,5.147e+00
2.633e-01,4.918e+00
2.656e-01,4.688e+00
2.680e-01,4.459e+00
2.703e-01,4.232e+00
2.726e-01,4.008e+00
2.750e-01,3.787e+00
2.773e-01,3.571e+00
2.797e-01,3.360e+00
2.820e-01,3.155e+00
2.843e-01,2.956e+00
2.867e-01,2.763e+00
2.890e-01,2.578e+00
2.914e-01,2.400e+00
2.937e-01,2.229e+00
2.960e-01,2.067e+00
2.984e-01,1.912e+00
3.007e-01,1.765e+00
3.031e-01,1.626e+00
3.054e-01,1.495e+00
3.077e-01,1.372e+00
3.101e-01,1.256e+00
3.124e-01,1.147e+00
3.148e-01,1.046e+00
3.171e-01,9.521e-01
3.194e-01,8.647e-01
3.218e-01,7.837e-01
3.241e-01,7.088e-01
3.265e-01,6.398e-01
3.288e-01,5.764e-01
3.311e-01,5.182e-01
3.335e-01,4.650e-01
3.358e-01,4.164e-01
3.382e-01,3.721e-01
3.405e-01,3.319e-01
3.428e-01,2.954e-01
3.452e-01,2.625e-01
3.475e-01,2.327e-01
3.499e-01,2.059e-01
3.522e-01,1.819e-01
3.545e-01,1.603e-01
3.569e-01,1.410e-01
3.592e-01,1.238e-01
3.616e-01,1.085e-01
3.639e-01,9.490e-02
3.662e-01,8.283e-02
3.686e-01,7.216e-02
3.709e-01,6.274e-02
3.733e-01,5.445e-02
3.756e-01,4.716e-02
3.780e-01,4.076e-02
3.803e-01,3.517e-02
3.826e-01,3.028e-02
3.850e-01,2.602e-02
3.873e-01,2.232e-02
3.897e-01,1.911e-02
3.920e-01,1.633e-02
3.943e-01,1.392e-02
3.967e-01,1.185e-02
3.990e-01,1.007e-02
4.014e-01,8.533e-03
4.037e-01,7.220e-03
4.060e-01,6.097e-03
4.084e-01,5.139e-03
4.107e-01,4.323e-03
4.131e-01,3.629e-03
4.154e-01,3.041e-03
4.177e-01,2.543e-03
4.201e-01,2.122e-03
4.224e-01,1.768e-03
4.248e-01,1.470e-03
4.271e-01,1.219e-03
4.294e-01,1.010e-03
4.318e-01,8.345e-04
4.341e-01,6.883e-04
4.365e-01,5.666e-04
4.388e-01,4.654e-04
4.411e-01,3.816e-04
4.435e-01,3.122e-04
4.458e-01,2.549e-04
4.482e-01,2.077e-04
4.505e-01,1.690e-04
4.528e-01,1.371e-04
4.552e-01,1.111e-04
4.575e-01,8.978e-05
4.599e-01,7.242e-05
4.622e-01,5.830e-05
4.645e-01,4.683e-05
4.669e-01,3.754e-05
