transmittance,probability_density
8.407e-04,6.847e-26
2.522e-03,2.011e-13
4.203e-03,1.327e-08
5.885e-03,4.695e-06
7.566e-03,1.287e-04
9.247e-03,7.713e-04
1.093e-02,1.707e-03
1.261e-02,2.040e-03
1.429e-02,2.270e-03
1.597e-02,3.801e-03
1.765e-02,7.175e-03
1.934e-02,1.185e-02
2.102e-02,1.692e-02
2.270e-02,2.182e-02
2.438e-02,2.666e-02
2.606e-02,3.207e-02
2.774e-02,3.881e-02
2.942e-02,4.740e-02
3.110e-02,5.804e-02
3.279e-02,7.067e-02
3.447e-02,8.513e-02
3.615e-02,1.013e-01
3.783e-02,1.191e-01
3.951e-02,1.386e-01
4.119e-02,1.602e-01
4.287e-02,1.842e-01
4.456e-02,2.107e-01
4.624e-02,2.402e-01
4.792e-02,2.728e-01
4.960e-02,3.086e-01
5.128e-02,3.479e-01
5.296e-02,3.907e-01
5.464e-02,4.370e-01
5.633e-02,4.870e-01
5.801e-02,5.407e-01
5.969e-02,5.982e-01
6.137e-02,6.598e-01
6.305e-02,7.256e-01
6.473e-02,7.958e-01
6.641e-02,8.706e-01
6.809e-02,9.503e-01
6.978e-02,1.035e+00
7.146e-02,1.125e+00
7.314e-02,1.221e+00
7.482e-02,1.323e+00
7.650e-02,1.431e+00
7.818e-02,1.545e+00
7.986e-02,1.667e+00
8.155e-02,1.795e+00
8.323e-02,1.930e+00
8.491e-02,2.072e+00
8.659e-02,2.222e+00
8.827e-02,2.379e+00
8.995e-02,2.543e+00
9.163e-02,2.715e+00
9.331e-02,2.895e+00
9.500e-02,3.082e+00
9.668e-02,3.276e+00
9.836e-02,3.477e+00
1.000e-01,3.685e+00
1.017e-01,3.900e+00
1.034e-01,4.121e+00
1.051e-01,4.348e+00
1.068e-01,4.580e+00
1.084e-01,4.818e+00
1.101e-01,5.059e+00
1.118e-01,5.305e+00
1.135e-01,5.554e+00
1.152e-01,5.805e+00
1.169e-01,6.057e+00
1.185e-01,6.311e+00
1.202e-01,6.564e+00
1.219e-01,6.816e+00
1.236e-01,7.065e+00
1.253e-01,7.312e+00
1.269e-01,7.554e+00
1.286e-01,7.790e+00
1.303e-01,8.020e+00
1.320e-01,8.243e+00
1.337e-01,8.456e+00
1.353e-01,8.660e+00
1.370e-01,8.852e+00
1.387e-01,9.033e+00
1.404e-01,9.200e+00
1.421e-01,9.354e+00
1.438e-01,9.493e+00
1.454e-01,9.616e+00
1.471e-01,9.723e+00
1.488e-01,9.813e+00
1.505e-01,9.885e+00
1.522e-01,9.940e+00
1.538e-01,9.976e+00
1.555e-01,9.994e+00
1.572e-01,9.994e+00
1.589e-01,9.975e+00
1.606e-01,9.938e+00
1.623e-01,9.882e+00
1.639e-01,9.809e+00
1.656e-01,9.718e+00
1.673e-01,9.611e+00
1.690e-01,9.488e+00
1.707e-01,9.349e+00
1.723e-01,9.195e+00
1.740e-01,9.027e+00
1.757e-01,8.847e+00
1.774e-01,8.654e+00
1.791e-01,8.451e+00
1.807e-01,8.238e+00
1.824e-01,8.016e+00
1.841e-01,7.786e+00
1.858e-01,7.549e+00
1.875e-01,7.307e+00
1.892e-01,7.060e+00
1.908e-01,6.810e+00
1.925e-01,6.558e+00
1.942e-01,6.304e+00
1.959e-01,6.049e+00
1.976e-01,5.795e+00
1.992e-01,5.542e+00
2.009e-01,5.292e+00
2.026e-01,5.044e+00
2.043e-01,4.800e+00
2.060e-01,4.561e+00
2.076e-01,4.326e+00
2.093e-01,4.096e+00
2.110e-01,3.873e+00
2.127e-01,3.656e+00
2.144e-01,3.445e+00
2.161e-01,3.242e+00
2.177e-01,3.046e+00
2.194e-01,2.857e+00
2.211e-01,2.675e+00
2.228e-01,2.502e+00
2.245e-01,2.336e+00
2.261e-01,2.177e+00
2.278e-01,2.027e+00
2.295e-01,1.883e+00
2.312e-01,1.748e+00
2.329e-01,1.619e+00
2.345e-01,1.498e+00
2.362e-01,1.384e+00
2.379e-01,1.277e+00
2.396e-01,1.176e+00
2.413e-01,1.082e+00
2.430e-01,9.935e-01
2.446e-01,9.112e-01
2.463e-01,8.345e-01
2.480e-01,7.631e-01
2.497e-01,6.969e-01
2.514e-01,6.355e-01
2.530e-01,5.787e-01
2.547e-01,5.262e-01
2.564e-01,4.779e-01
2.581e-01,4.334e-01
2.598e-01,3.924e-01
2.614e-01,3.549e-01
2.631e-01,3.205e-01
2.648e-01,2.891e-01
2.665e-01,2.603e-01
2.682e-01,2.342e-01
2.699e-01,2.103e-01
2.715e-01,1.887e-01
2.732e-01,1.690e-01
2.749e-01,1.512e-01
2.766e-01,1.351e-01
2.783e-01,1.206e-01
2.799e-01,1.074e-01
2.816e-01,9.561e-02
2.833e-01,8.497e-02
2.850e-01,7.543e-02
2.867e-01,6.687e-02
2.884e-01,5.920e-02
2.900e-01,5.235e-02
2.917e-01,4.623e-02
2.934e-01,4.077e-02
2.951e-01,3.591e-02
2.968e-01,3.159e-02
2.984e-01,2.776e-02
3.001e-01,2.436e-02
3.018e-01,2.135e-02
3.035e-01,1.868e-02
3.052e-01,1.633e-02
3.068e-01,1.426e-02
3.085e-01,1.244e-02
3.102e-01,1.083e-02
3.119e-01,9.422e-03
3.136e-01,8.186e-03
3.153e-01,7.103e-03
3.169e-01,6.156e-03
3.186e-01,5.329e-03
3.203e-01,4.607e-03
3.220e-01,3.978e-03
3.237e-01,3.431e-03
3.253e-01,2.955e-03
3.270e-01,2.542e-03
3.287e-01,2.184e-03
3.304e-01,1.875e-03
3.321e-01,1.607e-03
3.337e-01,1.376e-03
3.354e-01,1.177e-03
