transmittance,probability_density
1.904e-03,7.671e-03
5.711e-03,3.073e-01
9.518e-03,8.098e-01
1.332e-02,1.238e+00
1.713e-02,1.551e+00
2.094e-02,1.778e+00
2.475e-02,1.952e+00
2.855e-02,2.094e+00
3.236e-02,2.218e+00
3.617e-02,2.331e+00
3.997e-02,2.436e+00
4.378e-02,2.534e+00
4.759e-02,2.625e+00
5.140e-02,2.709e+00
5.520e-02,2.785e+00
5.901e-02,2.853e+00
6.282e-02,2.912e+00
6.662e-02,2.963e+00
7.043e-02,3.006e+00
7.424e-02,3.041e+00
7.805e-02,3.070e+00
8.185e-02,3.091e+00
8.566e-02,3.107e+00
8.947e-02,3.117e+00
9.327e-02,3.123e+00
9.708e-02,3.125e+00
1.009e-01,3.123e+00
1.047e-01,3.119e+00
1.085e-01,3.112e+00
1.123e-01,3.103e+00
1.161e-01,3.092e+00
1.199e-01,3.081e+00
1.237e-01,3.069e+00
1.275e-01,3.056e+00
1.313e-01,3.043e+00
1.352e-01,3.030e+00
1.390e-01,3.017e+00
1.428e-01,3.004e+00
1.466e-01,2.991e+00
1.504e-01,2.979e+00
1.542e-01,2.967e+00
1.580e-01,2.955e+00
1.618e-01,2.944e+00
1.656e-01,2.933e+00
1.694e-01,2.922e+00
1.732e-01,2.911e+00
1.770e-01,2.900e+00
1.808e-01,2.888e+00
1.846e-01,2.876e+00
1.885e-01,2.864e+00
1.923e-01,2.851e+00
1.961e-01,2.837e+00
1.999e-01,2.822e+00
2.037e-01,2.807e+00
2.075e-01,2.790e+00
2.113e-01,2.772e+00
2.151e-01,2.753e+00
2.189e-01,2.732e+00
2.227e-01,2.710e+00
2.265e-01,2.687e+00
2.303e-01,2.662e+00
2.341e-01,2.635e+00
2.379e-01,2.607e+00
2.418e-01,2.578e+00
2.456e-01,2.547e+00
2.494e-01,2.515e+00
2.532e-01,2.481e+00
2.570e-01,2.446e+00
2.608e-01,2.410e+00
2.646e-01,2.372e+00
2.684e-01,2.333e+00
2.722e-01,2.294e+00
2.760e-01,2.253e+00
2.798e-01,2.211e+00
2.836e-01,2.169e+00
2.874e-01,2.125e+00
2.912e-01,2.082e+00
2.951e-01,2.037e+00
2.989e-01,1.992e+00
3.027e-01,1.947e+00
3.065e-01,1.902e+00
3.103e-01,1.856e+00
3.141e-01,1.810e+00
3.179e-01,1.764e+00
3.217e-01,1.719e+00
3.255e-01,1.673e+00
3.293e-01,1.628e+00
3.331e-01,1.582e+00
3.369e-01,1.538e+00
3.407e-01,1.493e+00
3.445e-01,1.449e+00
3.483e-01,1.406e+00
3.522e-01,1.363e+00
3.560e-01,1.321e+00
3.598e-01,1.279e+00
3.636e-01,1.238e+00
3.674e-01,1.198e+00
3.712e-01,1.159e+00
3.750e-01,1.120e+00
3.788e-01,1.082e+00
3.826e-01,1.045e+00
3.864e-01,1.009e+00
3.902e-01,9.733e-01
3.940e-01,9.388e-01
3.978e-01,9.051e-01
4.016e-01,8.722e-01
4.055e-01,8.403e-01
4.093e-01,8.092e-01
4.131e-01,7.790e-01
4.169e-01,7.496e-01
4.207e-01,7.211e-01
4.245e-01,6.934e-01
4.283e-01,6.666e-01
4.321e-01,6.406e-01
4.359e-01,6.155e-01
4.397e-01,5.911e-01
4.435e-01,5.676e-01
4.473e-01,5.448e-01
4.511e-01,5.228e-01
4.549e-01,5.016e-01
4.588e-01,4.810e-01
4.626e-01,4.613e-01
4.664e-01,4.422e-01
4.702e-01,4.238e-01
4.740e-01,4.060e-01
4.778e-01,3.890e-01
4.816e-01,3.725e-01
4.854e-01,3.567e-01
4.892e-01,3.415e-01
4.930e-01,3.269e-01
4.968e-01,3.128e-01
5.006e-01,2.993e-01
5.044e-01,2.863e-01
5.082e-01,2.738e-01
5.121e-01,2.618e-01
5.159e-01,2.503e-01
5.197e-01,2.393e-01
5.235e-01,2.287e-01
5.273e-01,2.186e-01
5.311e-01,2.088e-01
5.349e-01,1.995e-01
5.387e-01,1.906e-01
5.425e-01,1.820e-01
5.463e-01,1.738e-01
5.501e-01,1.660e-01
5.539e-01,1.585e-01
5.577e-01,1.513e-01
5.615e-01,1.444e-01
5.654e-01,1.378e-01
5.692e-01,1.315e-01
5.730e-01,1.255e-01
5.768e-01,1.197e-01
5.806e-01,1.142e-01
5.844e-01,1.090e-01
5.882e-01,1.039e-01
5.920e-01,9.913e-02
5.958e-01,9.454e-02
5.996e-01,9.015e-02
6.034e-01,8.596e-02
6.072e-01,8.196e-02
6.110e-01,7.814e-02
6.148e-01,7.449e-02
6.187e-01,7.101e-02
6.225e-01,6.769e-02
6.263e-01,6.452e-02
6.301e-01,6.149e-02
6.339e-01,5.860e-02
6.377e-01,5.585e-02
6.415e-01,5.322e-02
6.453e-01,5.071e-02
6.491e-01,4.832e-02
6.529e-01,4.604e-02
6.567e-01,4.387e-02
6.605e-01,4.179e-02
6.643e-01,3.981e-02
6.681e-01,3.793e-02
6.720e-01,3.613e-02
6.758e-01,3.442e-02
6.796e-01,3.279e-02
6.834e-01,3.123e-02
6.872e-01,2.975e-02
6.910e-01,2.833e-02
6.948e-01,2.699e-02
6.986e-01,2.570e-02
7.024e-01,2.448e-02
7.062e-01,2.332e-02
7.100e-01,2.221e-02
7.138e-01,2.115e-02
7.176e-01,2.014e-02
7.214e-01,1.918e-02
7.253e-01,1.827e-02
7.291e-01,1.740e-02
7.329e-01,1.657e-02
7.367e-01,1.578e-02
7.405e-01,1.502e-02
7.443e-01,1.431e-02
7.481e-01,1.363e-02
7.519e-01,1.298e-02
7.557e-01,1.236e-02
7.595e-01,1.177e-02
