transmittance,probability_density
2.196e-03,1.225e-07
6.587e-03,4.803e-04
1.098e-02,5.740e-03
1.537e-02,2.001e-02
1.976e-02,4.338e-02
2.415e-02,7.410e-02
2.854e-02,1.100e-01
3.293e-02,1.491e-01
3.733e-02,1.899e-01
4.172e-02,2.309e-01
4.611e-02,2.710e-01
5.050e-02,3.093e-01
5.489e-02,3.451e-01
5.928e-02,3.780e-01
6.367e-02,4.077e-01
6.806e-02,4.342e-01
7.245e-02,4.577e-01
7.685e-02,4.785e-01
8.124e-02,4.969e-01
8.563e-02,5.135e-01
9.002e-02,5.286e-01
9.441e-02,5.425e-01
9.880e-02,5.557e-01
1.032e-01,5.683e-01
1.076e-01,5.808e-01
1.120e-01,5.932e-01
1.164e-01,6.057e-01
1.208e-01,6.184e-01
1.251e-01,6.315e-01
1.295e-01,6.451e-01
1.339e-01,6.591e-01
1.383e-01,6.737e-01
1.427e-01,6.889e-01
1.471e-01,7.048e-01
1.515e-01,7.214e-01
1.559e-01,7.387e-01
1.603e-01,7.567e-01
1.647e-01,7.755e-01
1.691e-01,7.950e-01
1.735e-01,8.152e-01
1.778e-01,8.361e-01
1.822e-01,8.577e-01
1.866e-01,8.800e-01
1.910e-01,9.029e-01
1.954e-01,9.263e-01
1.998e-01,9.502e-01
2.042e-01,9.745e-01
2.086e-01,9.993e-01
2.130e-01,1.024e+00
2.174e-01,1.050e+00
2.218e-01,1.075e+00
2.261e-01,1.101e+00
2.305e-01,1.126e+00
2.349e-01,1.152e+00
2.393e-01,1.178e+00
2.437e-01,1.203e+00
2.481e-01,1.229e+00
2.525e-01,1.254e+00
2.569e-01,1.280e+00
2.613e-01,1.305e+00
2.657e-01,1.330e+00
2.701e-01,1.354e+00
2.745e-01,1.379e+00
2.788e-01,1.403e+00
2.832e-01,1.427e+00
2.876e-01,1.451e+00
2.920e-01,1.475e+00
2.964e-01,1.499e+00
3.008e-01,1.522e+00
3.052e-01,1.546e+00
3.096e-01,1.569e+00
3.140e-01,1.592e+00
3.184e-01,1.616e+00
3.228e-01,1.639e+00
3.271e-01,1.663e+00
3.315e-01,1.687e+00
3.359e-01,1.711e+00
3.403e-01,1.735e+00
3.447e-01,1.759e+00
3.491e-01,1.784e+00
3.535e-01,1.809e+00
3.579e-01,1.835e+00
3.623e-01,1.861e+00
3.667e-01,1.887e+00
3.711e-01,1.914e+00
3.754e-01,1.942e+00
3.798e-01,1.969e+00
3.842e-01,1.998e+00
3.886e-01,2.026e+00
3.930e-01,2.055e+00
3.974e-01,2.084e+00
4.018e-01,2.113e+00
4.062e-01,2.143e+00
4.106e-01,2.172e+00
4.150e-01,2.201e+00
4.194e-01,2.230e+00
4.238e-01,2.258e+00
4.281e-01,2.286e+00
4.325e-01,2.313e+00
4.369e-01,2.339e+00
4.413e-01,2.364e+00
4.457e-01,2.387e+00
4.501e-01,2.409e+00
4.545e-01,2.430e+00
4.589e-01,2.448e+00
4.633e-01,2.464e+00
4.677e-01,2.479e+00
4.721e-01,2.490e+00
4.764e-01,2.499e+00
4.808e-01,2.506e+00
4.852e-01,2.509e+00
4.896e-01,2.510e+00
4.940e-01,2.508e+00
4.984e-01,2.502e+00
5.028e-01,2.494e+00
5.072e-01,2.482e+00
5.116e-01,2.467e+00
5.160e-01,2.449e+00
5.204e-01,2.428e+00
5.247e-01,2.404e+00
5.291e-01,2.377e+00
5.335e-01,2.347e+00
5.379e-01,2.314e+00
5.423e-01,2.279e+00
5.467e-01,2.241e+00
5.511e-01,2.200e+00
5.555e-01,2.158e+00
5.599e-01,2.113e+00
5.643e-01,2.066e+00
5.687e-01,2.018e+00
5.731e-01,1.968e+00
5.774e-01,1.917e+00
5.818e-01,1.865e+00
5.862e-01,1.812e+00
5.906e-01,1.758e+00
5.950e-01,1.703e+00
5.994e-01,1.648e+00
6.038e-01,1.593e+00
6.082e-01,1.537e+00
6.126e-01,1.482e+00
6.170e-01,1.427e+00
6.214e-01,1.372e+00
6.257e-01,1.318e+00
6.301e-01,1.265e+00
6.345e-01,1.212e+00
6.389e-01,1.160e+00
6.433e-01,1.109e+00
6.477e-01,1.059e+00
6.521e-01,1.011e+00
6.565e-01,9.630e-01
6.609e-01,9.167e-01
6.653e-01,8.717e-01
6.697e-01,8.281e-01
6.740e-01,7.858e-01
6.784e-01,7.450e-01
6.828e-01,7.056e-01
6.872e-01,6.676e-01
6.916e-01,6.311e-01
6.960e-01,5.959e-01
7.004e-01,5.623e-01
7.048e-01,5.300e-01
7.092e-01,4.992e-01
7.136e-01,4.697e-01
7.180e-01,4.416e-01
7.224e-01,4.148e-01
7.267e-01,3.893e-01
7.311e-01,3.651e-01
7.355e-01,3.421e-01
7.399e-01,3.203e-01
7.443e-01,2.997e-01
7.487e-01,2.801e-01
7.531e-01,2.617e-01
7.575e-01,2.443e-01
7.619e-01,2.278e-01
7.663e-01,2.124e-01
7.707e-01,1.978e-01
7.750e-01,1.841e-01
7.794e-01,1.712e-01
7.838e-01,1.592e-01
7.882e-01,1.479e-01
7.926e-01,1.373e-01
7.970e-01,1.274e-01
8.014e-01,1.181e-01
8.058e-01,1.094e-01
8.102e-01,1.013e-01
8.146e-01,9.378e-02
8.190e-01,8.674e-02
8.234e-01,8.019e-02
8.277e-01,7.409e-02
8.321e-01,6.842e-02
8.365e-01,6.315e-02
8.409e-01,5.826e-02
8.453e-01,5.371e-02
8.497e-01,4.950e-02
8.541e-01,4.559e-02
8.585e-01,4.197e-02
8.629e-01,3.862e-02
8.673e-01,3.553e-02
8.717e-01,3.266e-02
8.760e-01,3.001e-02
