transmittance,probability_density
2.500e-03,4.043e-98
7.500e-03,4.257e-59
1.250e-02,1.937e-44
1.750e-02,5.412e-36
2.250e-02,2.603e-30
2.750e-02,3.698e-26
3.250e-02,5.812e-23
3.750e-02,2.062e-20
4.250e-02,2.524e-18
4.750e-02,1.399e-16
5.250e-02,4.221e-15
5.750e-02,7.880e-14
6.250e-02,9.998e-13
6.750e-02,9.247e-12
7.250e-02,6.578e-11
7.750e-02,3.752e-10
8.250e-02,1.773e-09
8.750e-02,7.135e-09
9.250e-02,2.497e-08
9.750e-02,7.739e-08
1.025e-01,2.156e-07
1.075e-01,5.465e-07
1.125e-01,1.274e-06
1.175e-01,2.758e-06
1.225e-01,5.583e-06
1.275e-01,1.064e-05
1.325e-01,1.921e-05
1.375e-01,3.303e-05
1.425e-01,5.430e-05
1.475e-01,8.571e-05
1.525e-01,1.304e-04
1.575e-01,1.917e-04
1.625e-01,2.732e-04
1.675e-01,3.783e-04
1.725e-01,5.105e-04
1.775e-01,6.725e-04
1.825e-01,8.666e-04
1.875e-01,1.094e-03
1.925e-01,1.356e-03
1.975e-01,1.653e-03
2.025e-01,1.984e-03
2.075e-01,2.347e-03
2.125e-01,2.742e-03
2.175e-01,3.167e-03
2.225e-01,3.620e-03
2.275e-01,4.099e-03
2.325e-01,4.604e-03
2.375e-01,5.134e-03
2.425e-01,5.688e-03
2.475e-01,6.266e-03
2.525e-01,6.870e-03
2.575e-01,7.500e-03
2.625e-01,8.157e-03
2.675e-01,8.845e-03
2.725e-01,9.564e-03
2.775e-01,1.032e-02
2.825e-01,1.111e-02
2.875e-01,1.194e-02
2.925e-01,1.282e-02
2.975e-01,1.375e-02
3.025e-01,1.472e-02
3.075e-01,1.576e-02
3.125e-01,1.686e-02
3.175e-01,1.802e-02
3.225e-01,1.926e-02
3.275e-01,2.058e-02
3.325e-01,2.198e-02
3.375e-01,2.347e-02
3.425e-01,2.505e-02
3.475e-01,2.674e-02
3.525e-01,2.853e-02
3.575e-01,3.043e-02
3.625e-01,3.244e-02
3.675e-01,3.458e-02
3.725e-01,3.684e-02
3.775e-01,3.922e-02
3.825e-01,4.174e-02
3.875e-01,4.440e-02
3.925e-01,4.719e-02
3.975e-01,5.013e-02
4.025e-01,5.322e-02
4.075e-01,5.647e-02
4.125e-01,5.988e-02
4.175e-01,6.346e-02
4.225e-01,6.721e-02
4.275e-01,7.115e-02
4.325e-01,7.528e-02
4.375e-01,7.961e-02
4.425e-01,8.415e-02
4.475e-01,8.889e-02
4.525e-01,9.385e-02
4.575e-01,9.903e-02
4.625e-01,1.044e-01
4.675e-01,1.100e-01
4.725e-01,1.159e-01
4.775e-01,1.219e-01
4.825e-01,1.282e-01
4.875e-01,1.346e-01
4.925e-01,1.413e-01
4.975e-01,1.481e-01
5.025e-01,1.551e-01
5.075e-01,1.624e-01
5.125e-01,1.698e-01
5.175e-01,1.774e-01
5.225e-01,1.852e-01
5.275e-01,1.932e-01
5.325e-01,2.015e-01
5.375e-01,2.100e-01
5.425e-01,2.188e-01
5.475e-01,2.280e-01
5.525e-01,2.376e-01
5.575e-01,2.477e-01
5.625e-01,2.583e-01
5.675e-01,2.695e-01
5.725e-01,2.814e-01
5.775e-01,2.941e-01
5.825e-01,3.077e-01
5.875e-01,3.224e-01
5.925e-01,3.381e-01
5.975e-01,3.552e-01
6.025e-01,3.737e-01
6.075e-01,3.938e-01
6.125e-01,4.157e-01
6.175e-01,4.395e-01
6.225e-01,4.655e-01
6.275e-01,4.939e-01
6.325e-01,5.248e-01
6.375e-01,5.587e-01
6.425e-01,5.956e-01
6.475e-01,6.360e-01
6.525e-01,6.800e-01
6.575e-01,7.280e-01
6.625e-01,7.803e-01
6.675e-01,8.372e-01
6.725e-01,8.991e-01
6.775e-01,9.663e-01
6.825e-01,1.039e+00
6.875e-01,1.118e+00
6.925e-01,1.203e+00
6.975e-01,1.296e+00
7.025e-01,1.395e+00
7.075e-01,1.502e+00
7.125e-01,1.617e+00
7.175e-01,1.741e+00
7.225e-01,1.874e+00
7.275e-01,2.016e+00
7.325e-01,2.170e+00
7.375e-01,2.334e+00
7.425e-01,2.511e+00
7.475e-01,2.702e+00
7.525e-01,2.907e+00
7.575e-01,3.129e+00
7.625e-01,3.369e+00
7.675e-01,3.627e+00
7.725e-01,3.906e+00
7.775e-01,4.206e+00
7.825e-01,4.525e+00
7.875e-01,4.862e+00
7.925e-01,5.212e+00
7.975e-01,5.569e+00
8.025e-01,5.923e+00
8.075e-01,6.262e+00
8.125e-01,6.573e+00
8.175e-01,6.840e+00
8.225e-01,7.046e+00
8.275e-01,7.179e+00
8.325e-01,7.224e+00
8.375e-01,7.173e+00
8.425e-01,7.024e+00
8.475e-01,6.776e+00
8.525e-01,6.438e+00
8.575e-01,6.021e+00
8.625e-01,5.541e+00
8.675e-01,5.018e+00
8.725e-01,4.470e+00
8.775e-01,3.918e+00
8.825e-01,3.378e+00
8.875e-01,2.866e+00
8.925e-01,2.394e+00
8.975e-01,1.968e+00
9.025e-01,1.594e+00
9.075e-01,1.272e+00
9.125e-01,1.001e+00
9.175e-01,7.763e-01
9.225e-01,5.945e-01
9.275e-01,4.496e-01
9.325e-01,3.361e-01
9.375e-01,2.485e-01
9.425e-01,1.819e-01
9.475e-01,1.320e-01
9.525e-01,9.502e-02
9.575e-01,6.793e-02
9.625e-01,4.828e-02
9.675e-01,3.416e-02
9.725e-01,2.409e-02
9.775e-01,1.695e-02
9.825e-01,1.191e-02
9.875e-01,8.372e-03
9.925e-01,5.890e-03
9.975e-01,4.151e-03
