transmittance,probability_density
2.500e-03,2.041e-21
7.500e-03,2.366e-11
1.250e-02,5.868e-08
1.750e-02,3.676e-06
2.250e-02,4.831e-05
2.750e-02,2.773e-04
3.250e-02,9.692e-04
3.750e-02,2.457e-03
4.250e-02,5.004e-03
4.750e-02,8.730e-03
5.250e-02,1.361e-02
5.750e-02,1.950e-02
6.250e-02,2.622e-02
6.750e-02,3.352e-02
7.250e-02,4.119e-02
7.750e-02,4.900e-02
8.250e-02,5.674e-02
8.750e-02,6.425e-02
9.250e-02,7.139e-02
9.750e-02,7.808e-02
1.025e-01,8.426e-02
1.075e-01,8.991e-02
1.125e-01,9.508e-02
1.175e-01,9.981e-02
1.225e-01,1.042e-01
1.275e-01,1.083e-01
1.325e-01,1.123e-01
1.375e-01,1.163e-01
1.425e-01,1.204e-01
1.475e-01,1.247e-01
1.525e-01,1.293e-01
1.575e-01,1.343e-01
1.625e-01,1.399e-01
1.675e-01,1.461e-01
1.725e-01,1.529e-01
1.775e-01,1.605e-01
1.825e-01,1.687e-01
1.875e-01,1.776e-01
1.925e-01,1.873e-01
1.975e-01,1.976e-01
2.025e-01,2.085e-01
2.075e-01,2.200e-01
2.125e-01,2.319e-01
2.175e-01,2.443e-01
2.225e-01,2.571e-01
2.275e-01,2.701e-01
2.325e-01,2.834e-01
2.375e-01,2.969e-01
2.425e-01,3.105e-01
2.475e-01,3.242e-01
2.525e-01,3.380e-01
2.575e-01,3.519e-01
2.625e-01,3.659e-01
2.675e-01,3.801e-01
2.725e-01,3.945e-01
2.775e-01,4.092e-01
2.825e-01,4.242e-01
2.875e-01,4.395e-01
2.925e-01,4.553e-01
2.975e-01,4.717e-01
3.025e-01,4.886e-01
3.075e-01,5.061e-01
3.125e-01,5.243e-01
3.175e-01,5.432e-01
3.225e-01,5.629e-01
3.275e-01,5.834e-01
3.325e-01,6.047e-01
3.375e-01,6.267e-01
3.425e-01,6.496e-01
3.475e-01,6.733e-01
3.525e-01,6.978e-01
3.575e-01,7.231e-01
3.625e-01,7.492e-01
3.675e-01,7.760e-01
3.725e-01,8.036e-01
3.775e-01,8.320e-01
3.825e-01,8.610e-01
3.875e-01,8.909e-01
3.925e-01,9.215e-01
3.975e-01,9.528e-01
4.025e-01,9.850e-01
4.075e-01,1.018e+00
4.125e-01,1.052e+00
4.175e-01,1.087e+00
4.225e-01,1.123e+00
4.275e-01,1.160e+00
4.325e-01,1.198e+00
4.375e-01,1.237e+00
4.425e-01,1.278e+00
4.475e-01,1.321e+00
4.525e-01,1.365e+00
4.575e-01,1.410e+00
4.625e-01,1.458e+00
4.675e-01,1.507e+00
4.725e-01,1.559e+00
4.775e-01,1.613e+00
4.825e-01,1.669e+00
4.875e-01,1.727e+00
4.925e-01,1.788e+00
4.975e-01,1.851e+00
5.025e-01,1.917e+00
5.075e-01,1.986e+00
5.125e-01,2.057e+00
5.175e-01,2.130e+00
5.225e-01,2.206e+00
5.275e-01,2.285e+00
5.325e-01,2.365e+00
5.375e-01,2.448e+00
5.425e-01,2.532e+00
5.475e-01,2.617e+00
5.525e-01,2.703e+00
5.575e-01,2.790e+00
5.625e-01,2.876e+00
5.675e-01,2.961e+00
5.725e-01,3.044e+00
5.775e-01,3.125e+00
5.825e-01,3.203e+00
5.875e-01,3.276e+00
5.925e-01,3.343e+00
5.975e-01,3.405e+00
6.025e-01,3.459e+00
6.075e-01,3.506e+00
6.125e-01,3.543e+00
6.175e-01,3.571e+00
6.225e-01,3.588e+00
6.275e-01,3.594e+00
6.325e-01,3.589e+00
6.375e-01,3.571e+00
6.425e-01,3.543e+00
6.475e-01,3.502e+00
6.525e-01,3.449e+00
6.575e-01,3.386e+00
6.625e-01,3.311e+00
6.675e-01,3.226e+00
6.725e-01,3.132e+00
6.775e-01,3.030e+00
6.825e-01,2.920e+00
6.875e-01,2.803e+00
6.925e-01,2.681e+00
6.975e-01,2.555e+00
7.025e-01,2.426e+00
7.075e-01,2.295e+00
7.125e-01,2.163e+00
7.175e-01,2.031e+00
7.225e-01,1.900e+00
7.275e-01,1.772e+00
7.325e-01,1.646e+00
7.375e-01,1.524e+00
7.425e-01,1.406e+00
7.475e-01,1.293e+00
7.525e-01,1.184e+00
7.575e-01,1.082e+00
7.625e-01,9.845e-01
7.675e-01,8.932e-01
7.725e-01,8.078e-01
7.775e-01,7.282e-01
7.825e-01,6.545e-01
7.875e-01,5.864e-01
7.925e-01,5.238e-01
7.975e-01,4.665e-01
8.025e-01,4.143e-01
8.075e-01,3.669e-01
8.125e-01,3.240e-01
8.175e-01,2.853e-01
8.225e-01,2.506e-01
8.275e-01,2.195e-01
8.325e-01,1.918e-01
8.375e-01,1.671e-01
8.425e-01,1.453e-01
8.475e-01,1.260e-01
8.525e-01,1.090e-01
8.575e-01,9.410e-02
8.625e-01,8.104e-02
8.675e-01,6.963e-02
8.725e-01,5.970e-02
8.775e-01,5.108e-02
8.825e-01,4.361e-02
8.875e-01,3.716e-02
8.925e-01,3.160e-02
8.975e-01,2.682e-02
9.025e-01,2.272e-02
9.075e-01,1.921e-02
9.125e-01,1.622e-02
9.175e-01,1.367e-02
9.225e-01,1.150e-02
9.275e-01,9.656e-03
9.325e-01,8.097e-03
9.375e-01,6.779e-03
9.425e-01,5.668e-03
9.475e-01,4.731e-03
9.525e-01,3.944e-03
9.575e-01,3.284e-03
9.625e-01,2.730e-03
9.675e-01,2.267e-03
9.725e-01,1.881e-03
9.775e-01,1.558e-03
9.825e-01,1.289e-03
9.875e-01,1.066e-03
9.925e-01,8.803e-04
9.975e-01,7.263e-04
