transmittance,probability_density
6.969e-04,1.508e+01
2.091e-03,2.153e+01
3.484e-03,2.449e+01
4.878e-03,2.603e+01
6.272e-03,2.677e+01
7.665e-03,2.699e+01
9.059e-03,2.686e+01
1.045e-02,2.648e+01
1.185e-02,2.593e+01
1.324e-02,2.525e+01
1.463e-02,2.448e+01
1.603e-02,2.364e+01
1.742e-02,2.277e+01
1.881e-02,2.187e+01
2.021e-02,2.095e+01
2.160e-02,2.004e+01
2.300e-02,1.914e+01
2.439e-02,1.825e+01
2.578e-02,1.737e+01
2.718e-02,1.652e+01
2.857e-02,1.569e+01
2.996e-02,1.489e+01
3.136e-02,1.412e+01
3.275e-02,1.337e+01
3.415e-02,1.265e+01
3.554e-02,1.197e+01
3.693e-02,1.131e+01
3.833e-02,1.068e+01
3.972e-02,1.008e+01
4.111e-02,9.509e+00
4.251e-02,8.965e+00
4.390e-02,8.447e+00
4.530e-02,7.956e+00
4.669e-02,7.490e+00
4.808e-02,7.047e+00
4.948e-02,6.628e+00
5.087e-02,6.232e+00
5.226e-02,5.857e+00
5.366e-02,5.502e+00
5.505e-02,5.167e+00
5.644e-02,4.850e+00
5.784e-02,4.552e+00
5.923e-02,4.270e+00
6.063e-02,4.004e+00
6.202e-02,3.754e+00
6.341e-02,3.519e+00
6.481e-02,3.297e+00
6.620e-02,3.088e+00
6.759e-02,2.892e+00
6.899e-02,2.707e+00
7.038e-02,2.534e+00
7.178e-02,2.371e+00
7.317e-02,2.218e+00
7.456e-02,2.074e+00
7.596e-02,1.939e+00
7.735e-02,1.812e+00
7.874e-02,1.694e+00
8.014e-02,1.582e+00
8.153e-02,1.478e+00
8.293e-02,1.380e+00
8.432e-02,1.289e+00
8.571e-02,1.203e+00
8.711e-02,1.123e+00
8.850e-02,1.048e+00
8.989e-02,9.772e-01
9.129e-02,9.114e-01
9.268e-02,8.499e-01
9.407e-02,7.923e-01
9.547e-02,7.385e-01
9.686e-02,6.882e-01
9.826e-02,6.412e-01
9.965e-02,5.973e-01
1.010e-01,5.563e-01
1.024e-01,5.180e-01
1.038e-01,4.823e-01
1.052e-01,4.489e-01
1.066e-01,4.178e-01
1.080e-01,3.887e-01
1.094e-01,3.616e-01
1.108e-01,3.364e-01
1.122e-01,3.128e-01
1.136e-01,2.909e-01
1.150e-01,2.704e-01
1.164e-01,2.513e-01
1.178e-01,2.335e-01
1.192e-01,2.170e-01
1.206e-01,2.016e-01
1.219e-01,1.872e-01
1.233e-01,1.739e-01
1.247e-01,1.614e-01
1.261e-01,1.499e-01
1.275e-01,1.391e-01
1.289e-01,1.291e-01
1.303e-01,1.198e-01
1.317e-01,1.111e-01
1.331e-01,1.030e-01
1.345e-01,9.556e-02
1.359e-01,8.860e-02
1.373e-01,8.214e-02
1.387e-01,7.613e-02
1.401e-01,7.056e-02
1.415e-01,6.538e-02
1.429e-01,6.057e-02
1.442e-01,5.610e-02
1.456e-01,5.196e-02
1.470e-01,4.811e-02
1.484e-01,4.454e-02
1.498e-01,4.123e-02
1.512e-01,3.816e-02
1.526e-01,3.531e-02
1.540e-01,3.267e-02
1.554e-01,3.022e-02
1.568e-01,2.795e-02
1.582e-01,2.584e-02
1.596e-01,2.389e-02
1.610e-01,2.209e-02
1.624e-01,2.042e-02
1.638e-01,1.887e-02
1.652e-01,1.743e-02
1.665e-01,1.610e-02
1.679e-01,1.487e-02
1.693e-01,1.374e-02
1.707e-01,1.268e-02
1.721e-01,1.171e-02
1.735e-01,1.081e-02
1.749e-01,9.976e-03
1.763e-01,9.205e-03
1.777e-01,8.493e-03
1.791e-01,7.834e-03
1.805e-01,7.225e-03
1.819e-01,6.663e-03
1.833e-01,6.143e-03
1.847e-01,5.663e-03
1.861e-01,5.219e-03
1.875e-01,4.809e-03
1.888e-01,4.431e-03
1.902e-01,4.082e-03
1.916e-01,3.760e-03
1.930e-01,3.463e-03
1.944e-01,3.188e-03
1.958e-01,2.935e-03
1.972e-01,2.702e-03
1.986e-01,2.486e-03
2.000e-01,2.288e-03
2.014e-01,2.105e-03
2.028e-01,1.936e-03
2.042e-01,1.780e-03
2.056e-01,1.637e-03
2.070e-01,1.505e-03
2.084e-01,1.383e-03
2.098e-01,1.271e-03
2.111e-01,1.168e-03
2.125e-01,1.073e-03
2.139e-01,9.859e-04
2.153e-01,9.055e-04
2.167e-01,8.315e-04
2.181e-01,7.634e-04
2.195e-01,7.007e-04
2.209e-01,6.431e-04
2.223e-01,5.901e-04
2.237e-01,5.414e-04
2.251e-01,4.967e-04
2.265e-01,4.555e-04
2.279e-01,4.177e-04
2.293e-01,3.829e-04
2.307e-01,3.510e-04
2.321e-01,3.217e-04
2.334e-01,2.948e-04
2.348e-01,2.701e-04
2.362e-01,2.474e-04
2.376e-01,2.266e-04
2.390e-01,2.075e-04
2.404e-01,1.900e-04
2.418e-01,1.739e-04
2.432e-01,1.591e-04
2.446e-01,1.456e-04
2.460e-01,1.332e-04
2.474e-01,1.219e-04
2.488e-01,1.114e-04
2.502e-01,1.019e-04
2.516e-01,9.315e-05
2.530e-01,8.514e-05
2.544e-01,7.781e-05
2.557e-01,7.109e-05
2.571e-01,6.495e-05
2.585e-01,5.932e-05
2.599e-01,5.417e-05
2.613e-01,4.946e-05
2.627e-01,4.515e-05
2.641e-01,4.120e-05
2.655e-01,3.760e-05
2.669e-01,3.430e-05
2.683e-01,3.129e-05
2.697e-01,2.854e-05
2.711e-01,2.602e-05
2.725e-01,2.372e-05
2.739e-01,2.162e-05
2.753e-01,1.970e-05
2.766e-01,1.795e-05
2.780e-01,1.635e-05
