transmittance,probability_density
1.343e-03,3.213e+00
4.028e-03,5.701e+00
6.714e-03,7.223e+00
9.400e-03,8.279e+00
1.209e-02,9.036e+00
1.477e-02,9.579e+00
1.746e-02,9.959e+00
2.014e-02,1.021e+01
2.283e-02,1.036e+01
2.551e-02,1.043e+01
2.820e-02,1.043e+01
3.088e-02,1.037e+01
3.357e-02,1.027e+01
3.626e-02,1.013e+01
3.894e-02,9.956e+00
4.163e-02,9.758e+00
4.431e-02,9.541e+00
4.700e-02,9.307e+00
4.968e-02,9.060e+00
5.237e-02,8.803e+00
5.506e-02,8.540e+00
5.774e-02,8.271e+00
6.043e-02,8.000e+00
6.311e-02,7.728e+00
6.580e-02,7.455e+00
6.848e-02,7.185e+00
7.117e-02,6.917e+00
7.386e-02,6.652e+00
7.654e-02,6.391e+00
7.923e-02,6.136e+00
8.191e-02,5.885e+00
8.460e-02,5.640e+00
8.728e-02,5.402e+00
8.997e-02,5.170e+00
9.265e-02,4.944e+00
9.534e-02,4.725e+00
9.803e-02,4.513e+00
1.007e-01,4.307e+00
1.034e-01,4.109e+00
1.061e-01,3.917e+00
1.088e-01,3.733e+00
1.115e-01,3.555e+00
1.141e-01,3.384e+00
1.168e-01,3.219e+00
1.195e-01,3.061e+00
1.222e-01,2.909e+00
1.249e-01,2.764e+00
1.276e-01,2.625e+00
1.303e-01,2.491e+00
1.329e-01,2.363e+00
1.356e-01,2.241e+00
1.383e-01,2.124e+00
1.410e-01,2.013e+00
1.437e-01,1.906e+00
1.464e-01,1.805e+00
1.491e-01,1.708e+00
1.517e-01,1.616e+00
1.544e-01,1.528e+00
1.571e-01,1.444e+00
1.598e-01,1.364e+00
1.625e-01,1.289e+00
1.652e-01,1.217e+00
1.679e-01,1.149e+00
1.705e-01,1.084e+00
1.732e-01,1.022e+00
1.759e-01,9.636e-01
1.786e-01,9.081e-01
1.813e-01,8.556e-01
1.840e-01,8.058e-01
1.867e-01,7.587e-01
1.893e-01,7.140e-01
1.920e-01,6.718e-01
1.947e-01,6.318e-01
1.974e-01,5.941e-01
2.001e-01,5.583e-01
2.028e-01,5.246e-01
2.055e-01,4.927e-01
2.081e-01,4.626e-01
2.108e-01,4.342e-01
2.135e-01,4.075e-01
2.162e-01,3.822e-01
2.189e-01,3.584e-01
2.216e-01,3.359e-01
2.243e-01,3.148e-01
2.269e-01,2.949e-01
2.296e-01,2.761e-01
2.323e-01,2.585e-01
2.350e-01,2.419e-01
2.377e-01,2.263e-01
2.404e-01,2.116e-01
2.431e-01,1.979e-01
2.457e-01,1.849e-01
2.484e-01,1.728e-01
2.511e-01,1.614e-01
2.538e-01,1.506e-01
2.565e-01,1.406e-01
2.592e-01,1.312e-01
2.619e-01,1.224e-01
2.645e-01,1.141e-01
2.672e-01,1.063e-01
2.699e-01,9.908e-02
2.726e-01,9.229e-02
2.753e-01,8.593e-02
2.780e-01,7.999e-02
2.807e-01,7.443e-02
2.833e-01,6.923e-02
2.860e-01,6.438e-02
2.887e-01,5.984e-02
2.914e-01,5.561e-02
2.941e-01,5.165e-02
2.968e-01,4.796e-02
2.994e-01,4.452e-02
3.021e-01,4.131e-02
3.048e-01,3.832e-02
3.075e-01,3.554e-02
3.102e-01,3.294e-02
3.129e-01,3.052e-02
3.156e-01,2.827e-02
3.182e-01,2.618e-02
3.209e-01,2.423e-02
3.236e-01,2.242e-02
3.263e-01,2.074e-02
3.290e-01,1.917e-02
3.317e-01,1.772e-02
3.344e-01,1.637e-02
3.370e-01,1.512e-02
3.397e-01,1.396e-02
3.424e-01,1.288e-02
3.451e-01,1.188e-02
3.478e-01,1.096e-02
3.505e-01,1.010e-02
3.532e-01,9.306e-03
3.558e-01,8.572e-03
3.585e-01,7.892e-03
3.612e-01,7.263e-03
3.639e-01,6.682e-03
3.666e-01,6.144e-03
3.693e-01,5.648e-03
3.720e-01,5.190e-03
3.746e-01,4.767e-03
3.773e-01,4.376e-03
3.800e-01,4.016e-03
3.827e-01,3.684e-03
3.854e-01,3.378e-03
3.881e-01,3.096e-03
3.908e-01,2.836e-03
3.934e-01,2.598e-03
3.961e-01,2.378e-03
3.988e-01,2.175e-03
4.015e-01,1.990e-03
4.042e-01,1.819e-03
4.069e-01,1.662e-03
4.096e-01,1.518e-03
4.122e-01,1.386e-03
4.149e-01,1.264e-03
4.176e-01,1.153e-03
4.203e-01,1.051e-03
4.230e-01,9.580e-04
4.257e-01,8.725e-04
4.284e-01,7.943e-04
4.310e-01,7.228e-04
4.337e-01,6.573e-04
4.364e-01,5.975e-04
4.391e-01,5.429e-04
4.418e-01,4.930e-04
4.445e-01,4.475e-04
4.472e-01,4.060e-04
4.498e-01,3.681e-04
4.525e-01,3.336e-04
4.552e-01,3.022e-04
4.579e-01,2.736e-04
4.606e-01,2.475e-04
4.633e-01,2.239e-04
4.660e-01,2.024e-04
4.686e-01,1.828e-04
4.713e-01,1.650e-04
4.740e-01,1.489e-04
4.767e-01,1.343e-04
4.794e-01,1.211e-04
4.821e-01,1.091e-04
4.848e-01,9.820e-05
4.874e-01,8.836e-05
4.901e-01,7.946e-05
4.928e-01,7.141e-05
4.955e-01,6.414e-05
4.982e-01,5.758e-05
5.009e-01,5.165e-05
5.036e-01,4.631e-05
5.062e-01,4.149e-05
5.089e-01,3.715e-05
5.116e-01,3.325e-05
5.143e-01,2.973e-05
5.170e-01,2.657e-05
5.197e-01,2.373e-05
5.224e-01,2.118e-05
5.250e-01,1.889e-05
5.277e-01,1.684e-05
5.304e-01,1.500e-05
5.331e-01,1.335e-05
5.358e-01,1.187e-05
