transmittance,probability_density
1.681e-03,1.176e+00
5.042e-03,2.480e+00
8.404e-03,3.420e+00
1.177e-02,4.158e+00
1.513e-02,4.752e+00
1.849e-02,5.236e+00
2.185e-02,5.629e+00
2.521e-02,5.948e+00
2.857e-02,6.202e+00
3.194e-02,6.401e+00
3.530e-02,6.553e+00
3.866e-02,6.664e+00
4.202e-02,6.737e+00
4.538e-02,6.780e+00
4.874e-02,6.794e+00
5.210e-02,6.783e+00
5.547e-02,6.751e+00
5.883e-02,6.700e+00
6.219e-02,6.633e+00
6.555e-02,6.551e+00
6.891e-02,6.457e+00
7.227e-02,6.352e+00
7.564e-02,6.238e+00
7.900e-02,6.116e+00
8.236e-02,5.988e+00
8.572e-02,5.854e+00
8.908e-02,5.715e+00
9.244e-02,5.573e+00
9.581e-02,5.429e+00
9.917e-02,5.282e+00
1.025e-01,5.134e+00
1.059e-01,4.986e+00
1.093e-01,4.837e+00
1.126e-01,4.688e+00
1.160e-01,4.540e+00
1.193e-01,4.394e+00
1.227e-01,4.248e+00
1.261e-01,4.105e+00
1.294e-01,3.963e+00
1.328e-01,3.824e+00
1.361e-01,3.687e+00
1.395e-01,3.553e+00
1.429e-01,3.421e+00
1.462e-01,3.292e+00
1.496e-01,3.167e+00
1.530e-01,3.044e+00
1.563e-01,2.924e+00
1.597e-01,2.807e+00
1.630e-01,2.694e+00
1.664e-01,2.584e+00
1.698e-01,2.477e+00
1.731e-01,2.373e+00
1.765e-01,2.273e+00
1.798e-01,2.175e+00
1.832e-01,2.081e+00
1.866e-01,1.990e+00
1.899e-01,1.902e+00
1.933e-01,1.817e+00
1.967e-01,1.735e+00
2.000e-01,1.656e+00
2.034e-01,1.580e+00
2.067e-01,1.507e+00
2.101e-01,1.436e+00
2.135e-01,1.368e+00
2.168e-01,1.303e+00
2.202e-01,1.240e+00
2.235e-01,1.180e+00
2.269e-01,1.122e+00
2.303e-01,1.067e+00
2.336e-01,1.014e+00
2.370e-01,9.633e-01
2.404e-01,9.147e-01
2.437e-01,8.681e-01
2.471e-01,8.236e-01
2.504e-01,7.810e-01
2.538e-01,7.404e-01
2.572e-01,7.015e-01
2.605e-01,6.645e-01
2.639e-01,6.291e-01
2.672e-01,5.954e-01
2.706e-01,5.632e-01
2.740e-01,5.326e-01
2.773e-01,5.034e-01
2.807e-01,4.756e-01
2.841e-01,4.492e-01
2.874e-01,4.241e-01
2.908e-01,4.002e-01
2.941e-01,3.775e-01
2.975e-01,3.559e-01
3.009e-01,3.355e-01
3.042e-01,3.161e-01
3.076e-01,2.976e-01
3.109e-01,2.802e-01
3.143e-01,2.636e-01
3.177e-01,2.480e-01
3.210e-01,2.331e-01
3.244e-01,2.191e-01
3.278e-01,2.058e-01
3.311e-01,1.932e-01
3.345e-01,1.813e-01
3.378e-01,1.701e-01
3.412e-01,1.595e-01
3.446e-01,1.495e-01
3.479e-01,1.401e-01
3.513e-01,1.312e-01
3.546e-01,1.228e-01
3.580e-01,1.149e-01
3.614e-01,1.075e-01
3.647e-01,1.005e-01
3.681e-01,9.388e-02
3.715e-01,8.768e-02
3.748e-01,8.185e-02
3.782e-01,7.638e-02
3.815e-01,7.123e-02
3.849e-01,6.641e-02
3.883e-01,6.188e-02
3.916e-01,5.763e-02
3.950e-01,5.365e-02
3.983e-01,4.992e-02
4.017e-01,4.642e-02
4.051e-01,4.315e-02
4.084e-01,4.009e-02
4.118e-01,3.723e-02
4.152e-01,3.455e-02
4.185e-01,3.205e-02
4.219e-01,2.972e-02
4.252e-01,2.754e-02
4.286e-01,2.551e-02
4.320e-01,2.361e-02
4.353e-01,2.185e-02
4.387e-01,2.020e-02
4.421e-01,1.867e-02
4.454e-01,1.725e-02
4.488e-01,1.592e-02
4.521e-01,1.469e-02
4.555e-01,1.355e-02
4.589e-01,1.249e-02
4.622e-01,1.150e-02
4.656e-01,1.059e-02
4.689e-01,9.740e-03
4.723e-01,8.956e-03
4.757e-01,8.229e-03
4.790e-01,7.557e-03
4.824e-01,6.936e-03
4.858e-01,6.361e-03
4.891e-01,5.831e-03
4.925e-01,5.341e-03
4.958e-01,4.889e-03
4.992e-01,4.473e-03
5.026e-01,4.089e-03
5.059e-01,3.736e-03
5.093e-01,3.411e-03
5.126e-01,3.112e-03
5.160e-01,2.837e-03
5.194e-01,2.585e-03
5.227e-01,2.353e-03
5.261e-01,2.141e-03
5.295e-01,1.946e-03
5.328e-01,1.768e-03
5.362e-01,1.605e-03
5.395e-01,1.456e-03
5.429e-01,1.319e-03
5.463e-01,1.195e-03
5.496e-01,1.081e-03
5.530e-01,9.774e-04
5.563e-01,8.830e-04
5.597e-01,7.971e-04
5.631e-01,7.189e-04
5.664e-01,6.478e-04
5.698e-01,5.832e-04
5.732e-01,5.246e-04
5.765e-01,4.715e-04
5.799e-01,4.234e-04
5.832e-01,3.798e-04
5.866e-01,3.404e-04
5.900e-01,3.048e-04
5.933e-01,2.727e-04
5.967e-01,2.437e-04
6.000e-01,2.175e-04
6.034e-01,1.940e-04
6.068e-01,1.729e-04
6.101e-01,1.538e-04
6.135e-01,1.368e-04
6.169e-01,1.215e-04
6.202e-01,1.078e-04
6.236e-01,9.549e-05
6.269e-01,8.452e-05
6.303e-01,7.472e-05
6.337e-01,6.598e-05
6.370e-01,5.820e-05
6.404e-01,5.127e-05
6.437e-01,4.510e-05
6.471e-01,3.963e-05
6.505e-01,3.478e-05
6.538e-01,3.048e-05
6.572e-01,2.668e-05
6.606e-01,2.332e-05
6.639e-01,2.035e-05
6.673e-01,1.774e-05
6.706e-01,1.544e-05
