transmittance,probability_density
1.815e-03,6.925e-01
5.446e-03,1.606e+00
9.076e-03,2.321e+00
1.271e-02,2.913e+00
1.634e-02,3.414e+00
1.997e-02,3.840e+00
2.360e-02,4.204e+00
2.723e-02,4.513e+00
3.086e-02,4.775e+00
3.449e-02,4.995e+00
3.812e-02,5.178e+00
4.175e-02,5.327e+00
4.538e-02,5.445e+00
4.901e-02,5.537e+00
5.264e-02,5.605e+00
5.627e-02,5.651e+00
5.990e-02,5.677e+00
6.353e-02,5.685e+00
6.717e-02,5.677e+00
7.080e-02,5.655e+00
7.443e-02,5.620e+00
7.806e-02,5.574e+00
8.169e-02,5.517e+00
8.532e-02,5.451e+00
8.895e-02,5.377e+00
9.258e-02,5.296e+00
9.621e-02,5.209e+00
9.984e-02,5.116e+00
1.035e-01,5.019e+00
1.071e-01,4.918e+00
1.107e-01,4.813e+00
1.144e-01,4.706e+00
1.180e-01,4.596e+00
1.216e-01,4.484e+00
1.253e-01,4.372e+00
1.289e-01,4.258e+00
1.325e-01,4.144e+00
1.361e-01,4.029e+00
1.398e-01,3.915e+00
1.434e-01,3.801e+00
1.470e-01,3.687e+00
1.507e-01,3.575e+00
1.543e-01,3.463e+00
1.579e-01,3.353e+00
1.616e-01,3.244e+00
1.652e-01,3.137e+00
1.688e-01,3.032e+00
1.725e-01,2.928e+00
1.761e-01,2.826e+00
1.797e-01,2.726e+00
1.833e-01,2.628e+00
1.870e-01,2.533e+00
1.906e-01,2.439e+00
1.942e-01,2.348e+00
1.979e-01,2.259e+00
2.015e-01,2.172e+00
2.051e-01,2.087e+00
2.088e-01,2.005e+00
2.124e-01,1.925e+00
2.160e-01,1.847e+00
2.196e-01,1.772e+00
2.233e-01,1.699e+00
2.269e-01,1.628e+00
2.305e-01,1.559e+00
2.342e-01,1.493e+00
2.378e-01,1.429e+00
2.414e-01,1.366e+00
2.451e-01,1.306e+00
2.487e-01,1.248e+00
2.523e-01,1.192e+00
2.560e-01,1.139e+00
2.596e-01,1.087e+00
2.632e-01,1.037e+00
2.668e-01,9.883e-01
2.705e-01,9.420e-01
2.741e-01,8.974e-01
2.777e-01,8.546e-01
2.814e-01,8.134e-01
2.850e-01,7.739e-01
2.886e-01,7.360e-01
2.923e-01,6.996e-01
2.959e-01,6.648e-01
2.995e-01,6.314e-01
3.032e-01,5.994e-01
3.068e-01,5.688e-01
3.104e-01,5.395e-01
3.140e-01,5.115e-01
3.177e-01,4.848e-01
3.213e-01,4.592e-01
3.249e-01,4.348e-01
3.286e-01,4.115e-01
3.322e-01,3.893e-01
3.358e-01,3.681e-01
3.395e-01,3.479e-01
3.431e-01,3.287e-01
3.467e-01,3.104e-01
3.503e-01,2.930e-01
3.540e-01,2.764e-01
3.576e-01,2.606e-01
3.612e-01,2.457e-01
3.649e-01,2.315e-01
3.685e-01,2.180e-01
3.721e-01,2.052e-01
3.758e-01,1.930e-01
3.794e-01,1.815e-01
3.830e-01,1.706e-01
3.867e-01,1.603e-01
3.903e-01,1.505e-01
3.939e-01,1.412e-01
3.975e-01,1.325e-01
4.012e-01,1.242e-01
4.048e-01,1.164e-01
4.084e-01,1.090e-01
4.121e-01,1.021e-01
4.157e-01,9.552e-02
4.193e-01,8.933e-02
4.230e-01,8.350e-02
4.266e-01,7.801e-02
4.302e-01,7.284e-02
4.339e-01,6.798e-02
4.375e-01,6.340e-02
4.411e-01,5.910e-02
4.447e-01,5.507e-02
4.484e-01,5.128e-02
4.520e-01,4.772e-02
4.556e-01,4.438e-02
4.593e-01,4.126e-02
4.629e-01,3.833e-02
4.665e-01,3.559e-02
4.702e-01,3.302e-02
4.738e-01,3.062e-02
4.774e-01,2.838e-02
4.810e-01,2.629e-02
4.847e-01,2.433e-02
4.883e-01,2.251e-02
4.919e-01,2.081e-02
4.956e-01,1.922e-02
4.992e-01,1.775e-02
5.028e-01,1.638e-02
5.065e-01,1.510e-02
5.101e-01,1.391e-02
5.137e-01,1.281e-02
5.174e-01,1.179e-02
5.210e-01,1.084e-02
5.246e-01,9.956e-03
5.282e-01,9.140e-03
5.319e-01,8.386e-03
5.355e-01,7.687e-03
5.391e-01,7.042e-03
5.428e-01,6.446e-03
5.464e-01,5.895e-03
5.500e-01,5.388e-03
5.537e-01,4.920e-03
5.573e-01,4.489e-03
5.609e-01,4.092e-03
5.646e-01,3.727e-03
5.682e-01,3.392e-03
5.718e-01,3.085e-03
5.754e-01,2.802e-03
5.791e-01,2.544e-03
5.827e-01,2.307e-03
5.863e-01,2.090e-03
5.900e-01,1.892e-03
5.936e-01,1.710e-03
5.972e-01,1.545e-03
6.009e-01,1.395e-03
6.045e-01,1.257e-03
6.081e-01,1.132e-03
6.117e-01,1.019e-03
6.154e-01,9.157e-04
6.190e-01,8.221e-04
6.226e-01,7.372e-04
6.263e-01,6.604e-04
6.299e-01,5.909e-04
6.335e-01,5.281e-04
6.372e-01,4.714e-04
6.408e-01,4.203e-04
6.444e-01,3.742e-04
6.481e-01,3.328e-04
6.517e-01,2.956e-04
6.553e-01,2.622e-04
6.589e-01,2.323e-04
6.626e-01,2.055e-04
6.662e-01,1.815e-04
6.698e-01,1.601e-04
6.735e-01,1.410e-04
6.771e-01,1.240e-04
6.807e-01,1.089e-04
6.844e-01,9.550e-05
6.880e-01,8.361e-05
6.916e-01,7.307e-05
6.953e-01,6.376e-05
6.989e-01,5.553e-05
7.025e-01,4.829e-05
7.061e-01,4.191e-05
7.098e-01,3.631e-05
7.134e-01,3.140e-05
7.170e-01,2.710e-05
7.207e-01,2.335e-05
7.243e-01,2.007e-05
