transmittance,probability_density
2.500e-03,4.519e-03
7.500e-03,2.731e-02
1.250e-02,6.223e-02
1.750e-02,1.062e-01
2.250e-02,1.574e-01
2.750e-02,2.143e-01
3.250e-02,2.761e-01
3.750e-02,3.417e-01
4.250e-02,4.104e-01
4.750e-02,4.817e-01
5.250e-02,5.550e-01
5.750e-02,6.297e-01
6.250e-02,7.054e-01
6.750e-02,7.818e-01
7.250e-02,8.584e-01
7.750e-02,9.350e-01
8.250e-02,1.011e+00
8.750e-02,1.087e+00
9.250e-02,1.162e+00
9.750e-02,1.236e+00
1.025e-01,1.308e+00
1.075e-01,1.380e+00
1.125e-01,1.449e+00
1.175e-01,1.517e+00
1.225e-01,1.583e+00
1.275e-01,1.648e+00
1.325e-01,1.710e+00
1.375e-01,1.770e+00
1.425e-01,1.828e+00
1.475e-01,1.884e+00
1.525e-01,1.937e+00
1.575e-01,1.988e+00
1.625e-01,2.037e+00
1.675e-01,2.083e+00
1.725e-01,2.127e+00
1.775e-01,2.168e+00
1.825e-01,2.206e+00
1.875e-01,2.243e+00
1.925e-01,2.277e+00
1.975e-01,2.308e+00
2.025e-01,2.337e+00
2.075e-01,2.363e+00
2.125e-01,2.387e+00
2.175e-01,2.408e+00
2.225e-01,2.427e+00
2.275e-01,2.444e+00
2.325e-01,2.458e+00
2.375e-01,2.470e+00
2.425e-01,2.480e+00
2.475e-01,2.488e+00
2.525e-01,2.493e+00
2.575e-01,2.496e+00
2.625e-01,2.498e+00
2.675e-01,2.497e+00
2.725e-01,2.494e+00
2.775e-01,2.489e+00
2.825e-01,2.483e+00
2.875e-01,2.474e+00
2.925e-01,2.464e+00
2.975e-01,2.452e+00
3.025e-01,2.438e+00
3.075e-01,2.423e+00
3.125e-01,2.406e+00
3.175e-01,2.388e+00
3.225e-01,2.368e+00
3.275e-01,2.347e+00
3.325e-01,2.325e+00
3.375e-01,2.301e+00
3.425e-01,2.276e+00
3.475e-01,2.250e+00
3.525e-01,2.223e+00
3.575e-01,2.195e+00
3.625e-01,2.166e+00
3.675e-01,2.136e+00
3.725e-01,2.106e+00
3.775e-01,2.074e+00
3.825e-01,2.042e+00
3.875e-01,2.009e+00
3.925e-01,1.975e+00
3.975e-01,1.941e+00
4.025e-01,1.907e+00
4.075e-01,1.871e+00
4.125e-01,1.836e+00
4.175e-01,1.800e+00
4.225e-01,1.764e+00
4.275e-01,1.727e+00
4.325e-01,1.690e+00
4.375e-01,1.653e+00
4.425e-01,1.616e+00
4.475e-01,1.579e+00
4.525e-01,1.542e+00
4.575e-01,1.505e+00
4.625e-01,1.468e+00
4.675e-01,1.430e+00
4.725e-01,1.393e+00
4.775e-01,1.356e+00
4.825e-01,1.320e+00
4.875e-01,1.283e+00
4.925e-01,1.247e+00
4.975e-01,1.211e+00
5.025e-01,1.175e+00
5.075e-01,1.140e+00
5.125e-01,1.105e+00
5.175e-01,1.070e+00
5.225e-01,1.036e+00
5.275e-01,1.002e+00
5.325e-01,9.689e-01
5.375e-01,9.360e-01
5.425e-01,9.037e-01
5.475e-01,8.718e-01
5.525e-01,8.405e-01
5.575e-01,8.097e-01
5.625e-01,7.795e-01
5.675e-01,7.498e-01
5.725e-01,7.208e-01
5.775e-01,6.923e-01
5.825e-01,6.644e-01
5.875e-01,6.372e-01
5.925e-01,6.106e-01
5.975e-01,5.846e-01
6.025e-01,5.593e-01
6.075e-01,5.346e-01
6.125e-01,5.105e-01
6.175e-01,4.871e-01
6.225e-01,4.644e-01
6.275e-01,4.423e-01
6.325e-01,4.208e-01
6.375e-01,4.001e-01
6.425e-01,3.799e-01
6.475e-01,3.604e-01
6.525e-01,3.416e-01
6.575e-01,3.234e-01
6.625e-01,3.058e-01
6.675e-01,2.889e-01
6.725e-01,2.726e-01
6.775e-01,2.569e-01
6.825e-01,2.418e-01
6.875e-01,2.274e-01
6.925e-01,2.135e-01
6.975e-01,2.002e-01
7.025e-01,1.875e-01
7.075e-01,1.753e-01
7.125e-01,1.637e-01
7.175e-01,1.526e-01
7.225e-01,1.421e-01
7.275e-01,1.321e-01
7.325e-01,1.226e-01
7.375e-01,1.135e-01
7.425e-01,1.050e-01
7.475e-01,9.691e-02
7.525e-01,8.929e-02
7.575e-01,8.210e-02
7.625e-01,7.533e-02
7.675e-01,6.898e-02
7.725e-01,6.302e-02
7.775e-01,5.744e-02
7.825e-01,5.223e-02
7.875e-01,4.738e-02
7.925e-01,4.286e-02
7.975e-01,3.866e-02
8.025e-01,3.478e-02
8.075e-01,3.119e-02
8.125e-01,2.788e-02
8.175e-01,2.484e-02
8.225e-01,2.205e-02
8.275e-01,1.950e-02
8.325e-01,1.718e-02
8.375e-01,1.507e-02
8.425e-01,1.316e-02
8.475e-01,1.144e-02
8.525e-01,9.890e-03
8.575e-01,8.507e-03
8.625e-01,7.275e-03
8.675e-01,6.182e-03
8.725e-01,5.219e-03
8.775e-01,4.374e-03
8.825e-01,3.638e-03
8.875e-01,3.000e-03
8.925e-01,2.451e-03
8.975e-01,1.982e-03
9.025e-01,1.585e-03
9.075e-01,1.252e-03
9.125e-01,9.760e-04
9.175e-01,7.491e-04
9.225e-01,5.652e-04
9.275e-01,4.182e-04
9.325e-01,3.026e-04
9.375e-01,2.135e-04
9.425e-01,1.461e-04
9.475e-01,9.655e-05
9.525e-01,6.115e-05
9.575e-01,3.677e-05
9.625e-01,2.072e-05
9.675e-01,1.074e-05
9.725e-01,4.982e-06
9.775e-01,1.976e-06
9.825e-01,6.192e-07
9.875e-01,1.306e-07
9.925e-01,1.224e-08
9.975e-01,7.452e-11
