transmittance,probability_density
2.500e-03,9.799e-03
7.500e-03,5.133e-02
1.250e-02,1.093e-01
1.750e-02,1.783e-01
2.250e-02,2.552e-01
2.750e-02,3.380e-01
3.250e-02,4.252e-01
3.750e-02,5.155e-01
4.250e-02,6.079e-01
4.750e-02,7.018e-01
5.250e-02,7.962e-01
5.750e-02,8.908e-01
6.250e-02,9.850e-01
6.750e-02,1.078e+00
7.250e-02,1.170e+00
7.750e-02,1.261e+00
8.250e-02,1.350e+00
8.750e-02,1.436e+00
9.250e-02,1.520e+00
9.750e-02,1.602e+00
1.025e-01,1.681e+00
1.075e-01,1.758e+00
1.125e-01,1.831e+00
1.175e-01,1.901e+00
1.225e-01,1.969e+00
1.275e-01,2.033e+00
1.325e-01,2.094e+00
1.375e-01,2.151e+00
1.425e-01,2.206e+00
1.475e-01,2.257e+00
1.525e-01,2.305e+00
1.575e-01,2.350e+00
1.625e-01,2.391e+00
1.675e-01,2.429e+00
1.725e-01,2.464e+00
1.775e-01,2.496e+00
1.825e-01,2.524e+00
1.875e-01,2.550e+00
1.925e-01,2.572e+00
1.975e-01,2.592e+00
2.025e-01,2.608e+00
2.075e-01,2.622e+00
2.125e-01,2.633e+00
2.175e-01,2.641e+00
2.225e-01,2.647e+00
2.275e-01,2.649e+00
2.325e-01,2.650e+00
2.375e-01,2.648e+00
2.425e-01,2.643e+00
2.475e-01,2.637e+00
2.525e-01,2.628e+00
2.575e-01,2.616e+00
2.625e-01,2.603e+00
2.675e-01,2.588e+00
2.725e-01,2.571e+00
2.775e-01,2.552e+00
2.825e-01,2.532e+00
2.875e-01,2.509e+00
2.925e-01,2.485e+00
2.975e-01,2.460e+00
3.025e-01,2.433e+00
3.075e-01,2.405e+00
3.125e-01,2.376e+00
3.175e-01,2.345e+00
3.225e-01,2.313e+00
3.275e-01,2.281e+00
3.325e-01,2.247e+00
3.375e-01,2.212e+00
3.425e-01,2.177e+00
3.475e-01,2.141e+00
3.525e-01,2.104e+00
3.575e-01,2.066e+00
3.625e-01,2.028e+00
3.675e-01,1.989e+00
3.725e-01,1.950e+00
3.775e-01,1.911e+00
3.825e-01,1.871e+00
3.875e-01,1.831e+00
3.925e-01,1.791e+00
3.975e-01,1.751e+00
4.025e-01,1.710e+00
4.075e-01,1.670e+00
4.125e-01,1.629e+00
4.175e-01,1.588e+00
4.225e-01,1.548e+00
4.275e-01,1.508e+00
4.325e-01,1.468e+00
4.375e-01,1.428e+00
4.425e-01,1.388e+00
4.475e-01,1.349e+00
4.525e-01,1.310e+00
4.575e-01,1.271e+00
4.625e-01,1.233e+00
4.675e-01,1.195e+00
4.725e-01,1.157e+00
4.775e-01,1.120e+00
4.825e-01,1.084e+00
4.875e-01,1.048e+00
4.925e-01,1.012e+00
4.975e-01,9.773e-01
5.025e-01,9.430e-01
5.075e-01,9.093e-01
5.125e-01,8.762e-01
5.175e-01,8.438e-01
5.225e-01,8.119e-01
5.275e-01,7.808e-01
5.325e-01,7.502e-01
5.375e-01,7.204e-01
5.425e-01,6.913e-01
5.475e-01,6.628e-01
5.525e-01,6.350e-01
5.575e-01,6.080e-01
5.625e-01,5.816e-01
5.675e-01,5.559e-01
5.725e-01,5.310e-01
5.775e-01,5.067e-01
5.825e-01,4.832e-01
5.875e-01,4.604e-01
5.925e-01,4.382e-01
5.975e-01,4.168e-01
6.025e-01,3.961e-01
6.075e-01,3.760e-01
6.125e-01,3.566e-01
6.175e-01,3.379e-01
6.225e-01,3.199e-01
6.275e-01,3.025e-01
6.325e-01,2.858e-01
6.375e-01,2.698e-01
6.425e-01,2.543e-01
6.475e-01,2.395e-01
6.525e-01,2.253e-01
6.575e-01,2.117e-01
6.625e-01,1.987e-01
6.675e-01,1.862e-01
6.725e-01,1.744e-01
6.775e-01,1.630e-01
6.825e-01,1.522e-01
6.875e-01,1.420e-01
6.925e-01,1.322e-01
6.975e-01,1.229e-01
7.025e-01,1.142e-01
7.075e-01,1.058e-01
7.125e-01,9.797e-02
7.175e-01,9.054e-02
7.225e-01,8.354e-02
7.275e-01,7.694e-02
7.325e-01,7.074e-02
7.375e-01,6.492e-02
7.425e-01,5.946e-02
7.475e-01,5.435e-02
7.525e-01,4.958e-02
7.575e-01,4.513e-02
7.625e-01,4.099e-02
7.675e-01,3.714e-02
7.725e-01,3.357e-02
7.775e-01,3.027e-02
7.825e-01,2.722e-02
7.875e-01,2.441e-02
7.925e-01,2.183e-02
7.975e-01,1.946e-02
8.025e-01,1.729e-02
8.075e-01,1.532e-02
8.125e-01,1.352e-02
8.175e-01,1.189e-02
8.225e-01,1.041e-02
8.275e-01,9.083e-03
8.325e-01,7.889e-03
8.375e-01,6.821e-03
8.425e-01,5.868e-03
8.475e-01,5.023e-03
8.525e-01,4.275e-03
8.575e-01,3.617e-03
8.625e-01,3.041e-03
8.675e-01,2.540e-03
8.725e-01,2.106e-03
8.775e-01,1.732e-03
8.825e-01,1.412e-03
8.875e-01,1.141e-03
8.925e-01,9.124e-04
8.975e-01,7.217e-04
9.025e-01,5.639e-04
9.075e-01,4.347e-04
9.125e-01,3.301e-04
9.175e-01,2.465e-04
9.225e-01,1.807e-04
9.275e-01,1.296e-04
9.325e-01,9.074e-05
9.375e-01,6.177e-05
9.425e-01,4.069e-05
9.475e-01,2.578e-05
9.525e-01,1.559e-05
9.575e-01,8.910e-06
9.625e-01,4.741e-06
9.675e-01,2.302e-06
9.725e-01,9.892e-07
9.775e-01,3.580e-07
9.825e-01,1.000e-07
9.875e-01,1.810e-08
9.925e-01,1.345e-09
9.975e-01,4.975e-12
