transmittance,probability_density
2.500e-03,8.286e-04
7.500e-03,6.848e-03
1.250e-02,1.809e-02
1.750e-02,3.407e-02
2.250e-02,5.438e-02
2.750e-02,7.868e-02
3.250e-02,1.066e-01
3.750e-02,1.379e-01
4.250e-02,1.723e-01
4.750e-02,2.095e-01
5.250e-02,2.492e-01
5.750e-02,2.913e-01
6.250e-02,3.354e-01
6.750e-02,3.813e-01
7.250e-02,4.289e-01
7.750e-02,4.780e-01
8.250e-02,5.283e-01
8.750e-02,5.797e-01
9.250e-02,6.320e-01
9.750e-02,6.851e-01
1.025e-01,7.387e-01
1.075e-01,7.927e-01
1.125e-01,8.470e-01
1.175e-01,9.015e-01
1.225e-01,9.560e-01
1.275e-01,1.010e+00
1.325e-01,1.065e+00
1.375e-01,1.118e+00
1.425e-01,1.172e+00
1.475e-01,1.225e+00
1.525e-01,1.277e+00
1.575e-01,1.328e+00
1.625e-01,1.379e+00
1.675e-01,1.428e+00
1.725e-01,1.477e+00
1.775e-01,1.525e+00
1.825e-01,1.572e+00
1.875e-01,1.617e+00
1.925e-01,1.661e+00
1.975e-01,1.704e+00
2.025e-01,1.746e+00
2.075e-01,1.786e+00
2.125e-01,1.825e+00
2.175e-01,1.862e+00
2.225e-01,1.898e+00
2.275e-01,1.932e+00
2.325e-01,1.965e+00
2.375e-01,1.996e+00
2.425e-01,2.026e+00
2.475e-01,2.054e+00
2.525e-01,2.081e+00
2.575e-01,2.105e+00
2.625e-01,2.129e+00
2.675e-01,2.150e+00
2.725e-01,2.170e+00
2.775e-01,2.188e+00
2.825e-01,2.205e+00
2.875e-01,2.220e+00
2.925e-01,2.233e+00
2.975e-01,2.245e+00
3.025e-01,2.255e+00
3.075e-01,2.263e+00
3.125e-01,2.270e+00
3.175e-01,2.275e+00
3.225e-01,2.279e+00
3.275e-01,2.281e+00
3.325e-01,2.282e+00
3.375e-01,2.281e+00
3.425e-01,2.279e+00
3.475e-01,2.275e+00
3.525e-01,2.270e+00
3.575e-01,2.263e+00
3.625e-01,2.255e+00
3.675e-01,2.246e+00
3.725e-01,2.235e+00
3.775e-01,2.223e+00
3.825e-01,2.210e+00
3.875e-01,2.195e+00
3.925e-01,2.180e+00
3.975e-01,2.163e+00
4.025e-01,2.145e+00
4.075e-01,2.127e+00
4.125e-01,2.107e+00
4.175e-01,2.086e+00
4.225e-01,2.064e+00
4.275e-01,2.041e+00
4.325e-01,2.017e+00
4.375e-01,1.993e+00
4.425e-01,1.967e+00
4.475e-01,1.941e+00
4.525e-01,1.915e+00
4.575e-01,1.887e+00
4.625e-01,1.859e+00
4.675e-01,1.830e+00
4.725e-01,1.801e+00
4.775e-01,1.771e+00
4.825e-01,1.740e+00
4.875e-01,1.710e+00
4.925e-01,1.678e+00
4.975e-01,1.647e+00
5.025e-01,1.615e+00
5.075e-01,1.582e+00
5.125e-01,1.550e+00
5.175e-01,1.517e+00
5.225e-01,1.484e+00
5.275e-01,1.451e+00
5.325e-01,1.418e+00
5.375e-01,1.384e+00
5.425e-01,1.351e+00
5.475e-01,1.317e+00
5.525e-01,1.284e+00
5.575e-01,1.250e+00
5.625e-01,1.217e+00
5.675e-01,1.184e+00
5.725e-01,1.151e+00
5.775e-01,1.118e+00
5.825e-01,1.085e+00
5.875e-01,1.053e+00
5.925e-01,1.020e+00
5.975e-01,9.883e-01
6.025e-01,9.566e-01
6.075e-01,9.252e-01
6.125e-01,8.942e-01
6.175e-01,8.635e-01
6.225e-01,8.332e-01
6.275e-01,8.033e-01
6.325e-01,7.739e-01
6.375e-01,7.449e-01
6.425e-01,7.164e-01
6.475e-01,6.883e-01
6.525e-01,6.608e-01
6.575e-01,6.338e-01
6.625e-01,6.073e-01
6.675e-01,5.814e-01
6.725e-01,5.560e-01
6.775e-01,5.312e-01
6.825e-01,5.069e-01
6.875e-01,4.833e-01
6.925e-01,4.602e-01
6.975e-01,4.378e-01
7.025e-01,4.159e-01
7.075e-01,3.947e-01
7.125e-01,3.741e-01
7.175e-01,3.541e-01
7.225e-01,3.348e-01
7.275e-01,3.160e-01
7.325e-01,2.979e-01
7.375e-01,2.805e-01
7.425e-01,2.636e-01
7.475e-01,2.474e-01
7.525e-01,2.318e-01
7.575e-01,2.168e-01
7.625e-01,2.025e-01
7.675e-01,1.887e-01
7.725e-01,1.756e-01
7.775e-01,1.630e-01
7.825e-01,1.510e-01
7.875e-01,1.397e-01
7.925e-01,1.288e-01
7.975e-01,1.186e-01
8.025e-01,1.089e-01
8.075e-01,9.969e-02
8.125e-01,9.105e-02
8.175e-01,8.291e-02
8.225e-01,7.528e-02
8.275e-01,6.813e-02
8.325e-01,6.146e-02
8.375e-01,5.524e-02
8.425e-01,4.947e-02
8.475e-01,4.412e-02
8.525e-01,3.918e-02
8.575e-01,3.464e-02
8.625e-01,3.048e-02
8.675e-01,2.667e-02
8.725e-01,2.321e-02
8.775e-01,2.008e-02
8.825e-01,1.725e-02
8.875e-01,1.472e-02
8.925e-01,1.246e-02
8.975e-01,1.046e-02
9.025e-01,8.701e-03
9.075e-01,7.162e-03
9.125e-01,5.827e-03
9.175e-01,4.681e-03
9.225e-01,3.707e-03
9.275e-01,2.887e-03
9.325e-01,2.208e-03
9.375e-01,1.652e-03
9.425e-01,1.206e-03
9.475e-01,8.540e-04
9.525e-01,5.839e-04
9.575e-01,3.821e-04
9.625e-01,2.369e-04
9.675e-01,1.369e-04
9.725e-01,7.204e-05
9.775e-01,3.325e-05
9.825e-01,1.260e-05
9.875e-01,3.422e-06
9.925e-01,4.708e-07
9.975e-01,6.535e-09
