transmittance,probability_density
2.500e-03,4.608e-07
7.500e-03,1.517e-05
1.250e-02,7.653e-05
1.750e-02,2.213e-04
2.250e-02,4.876e-04
2.750e-02,9.141e-04
3.250e-02,1.539e-03
3.750e-02,2.400e-03
4.250e-02,3.536e-03
4.750e-02,4.981e-03
5.250e-02,6.770e-03
5.750e-02,8.939e-03
6.250e-02,1.152e-02
6.750e-02,1.454e-02
7.250e-02,1.804e-02
7.750e-02,2.204e-02
8.250e-02,2.656e-02
8.750e-02,3.164e-02
9.250e-02,3.729e-02
9.750e-02,4.355e-02
1.025e-01,5.042e-02
1.075e-01,5.793e-02
1.125e-01,6.610e-02
1.175e-01,7.494e-02
1.225e-01,8.447e-02
1.275e-01,9.469e-02
1.325e-01,1.056e-01
1.375e-01,1.173e-01
1.425e-01,1.297e-01
1.475e-01,1.428e-01
1.525e-01,1.566e-01
1.575e-01,1.712e-01
1.625e-01,1.865e-01
1.675e-01,2.026e-01
1.725e-01,2.194e-01
1.775e-01,2.370e-01
1.825e-01,2.553e-01
1.875e-01,2.743e-01
1.925e-01,2.940e-01
1.975e-01,3.145e-01
2.025e-01,3.356e-01
2.075e-01,3.575e-01
2.125e-01,3.800e-01
2.175e-01,4.032e-01
2.225e-01,4.271e-01
2.275e-01,4.516e-01
2.325e-01,4.767e-01
2.375e-01,5.024e-01
2.425e-01,5.287e-01
2.475e-01,5.556e-01
2.525e-01,5.830e-01
2.575e-01,6.110e-01
2.625e-01,6.394e-01
2.675e-01,6.684e-01
2.725e-01,6.977e-01
2.775e-01,7.276e-01
2.825e-01,7.578e-01
2.875e-01,7.884e-01
2.925e-01,8.193e-01
2.975e-01,8.506e-01
3.025e-01,8.821e-01
3.075e-01,9.139e-01
3.125e-01,9.460e-01
3.175e-01,9.782e-01
3.225e-01,1.011e+00
3.275e-01,1.043e+00
3.325e-01,1.076e+00
3.375e-01,1.109e+00
3.425e-01,1.141e+00
3.475e-01,1.174e+00
3.525e-01,1.207e+00
3.575e-01,1.240e+00
3.625e-01,1.272e+00
3.675e-01,1.305e+00
3.725e-01,1.337e+00
3.775e-01,1.369e+00
3.825e-01,1.401e+00
3.875e-01,1.433e+00
3.925e-01,1.464e+00
3.975e-01,1.496e+00
4.025e-01,1.526e+00
4.075e-01,1.557e+00
4.125e-01,1.586e+00
4.175e-01,1.616e+00
4.225e-01,1.645e+00
4.275e-01,1.673e+00
4.325e-01,1.701e+00
4.375e-01,1.728e+00
4.425e-01,1.755e+00
4.475e-01,1.781e+00
4.525e-01,1.806e+00
4.575e-01,1.831e+00
4.625e-01,1.855e+00
4.675e-01,1.878e+00
4.725e-01,1.900e+00
4.775e-01,1.922e+00
4.825e-01,1.942e+00
4.875e-01,1.962e+00
4.925e-01,1.981e+00
4.975e-01,1.999e+00
5.025e-01,2.016e+00
5.075e-01,2.032e+00
5.125e-01,2.047e+00
5.175e-01,2.061e+00
5.225e-01,2.074e+00
5.275e-01,2.085e+00
5.325e-01,2.096e+00
5.375e-01,2.106e+00
5.425e-01,2.114e+00
5.475e-01,2.122e+00
5.525e-01,2.128e+00
5.575e-01,2.133e+00
5.625e-01,2.137e+00
5.675e-01,2.140e+00
5.725e-01,2.141e+00
5.775e-01,2.141e+00
5.825e-01,2.141e+00
5.875e-01,2.138e+00
5.925e-01,2.135e+00
5.975e-01,2.130e+00
6.025e-01,2.125e+00
6.075e-01,2.117e+00
6.125e-01,2.109e+00
6.175e-01,2.100e+00
6.225e-01,2.089e+00
6.275e-01,2.077e+00
6.325e-01,2.064e+00
6.375e-01,2.049e+00
6.425e-01,2.034e+00
6.475e-01,2.017e+00
6.525e-01,1.999e+00
6.575e-01,1.979e+00
6.625e-01,1.959e+00
6.675e-01,1.938e+00
6.725e-01,1.915e+00
6.775e-01,1.891e+00
6.825e-01,1.866e+00
6.875e-01,1.840e+00
6.925e-01,1.814e+00
6.975e-01,1.786e+00
7.025e-01,1.757e+00
7.075e-01,1.727e+00
7.125e-01,1.696e+00
7.175e-01,1.664e+00
7.225e-01,1.632e+00
7.275e-01,1.598e+00
7.325e-01,1.564e+00
7.375e-01,1.529e+00
7.425e-01,1.494e+00
7.475e-01,1.457e+00
7.525e-01,1.420e+00
7.575e-01,1.383e+00
7.625e-01,1.345e+00
7.675e-01,1.306e+00
7.725e-01,1.267e+00
7.775e-01,1.228e+00
7.825e-01,1.188e+00
7.875e-01,1.148e+00
7.925e-01,1.108e+00
7.975e-01,1.068e+00
8.025e-01,1.027e+00
8.075e-01,9.864e-01
8.125e-01,9.457e-01
8.175e-01,9.051e-01
8.225e-01,8.647e-01
8.275e-01,8.244e-01
8.325e-01,7.843e-01
8.375e-01,7.446e-01
8.425e-01,7.052e-01
8.475e-01,6.662e-01
8.525e-01,6.277e-01
8.575e-01,5.898e-01
8.625e-01,5.526e-01
8.675e-01,5.160e-01
8.725e-01,4.802e-01
8.775e-01,4.452e-01
8.825e-01,4.111e-01
8.875e-01,3.779e-01
8.925e-01,3.458e-01
8.975e-01,3.148e-01
9.025e-01,2.850e-01
9.075e-01,2.563e-01
9.125e-01,2.290e-01
9.175e-01,2.029e-01
9.225e-01,1.783e-01
9.275e-01,1.551e-01
9.325e-01,1.334e-01
9.375e-01,1.133e-01
9.425e-01,9.476e-02
9.475e-01,7.784e-02
9.525e-01,6.259e-02
9.575e-01,4.902e-02
9.625e-01,3.716e-02
9.675e-01,2.700e-02
9.725e-01,1.854e-02
9.775e-01,1.177e-02
9.825e-01,6.632e-03
9.875e-01,3.060e-03
9.925e-01,9.376e-04
9.975e-01,7.230e-05
