transmittance,probability_density
2.500e-03,5.430e-06
7.500e-03,1.134e-04
1.250e-02,4.625e-04
1.750e-02,1.162e-03
2.250e-02,2.304e-03
2.750e-02,3.969e-03
3.250e-02,6.227e-03
3.750e-02,9.139e-03
4.250e-02,1.276e-02
4.750e-02,1.714e-02
5.250e-02,2.232e-02
5.750e-02,2.833e-02
6.250e-02,3.521e-02
6.750e-02,4.298e-02
7.250e-02,5.167e-02
7.750e-02,6.129e-02
8.250e-02,7.187e-02
8.750e-02,8.340e-02
9.250e-02,9.590e-02
9.750e-02,1.094e-01
1.025e-01,1.238e-01
1.075e-01,1.392e-01
1.125e-01,1.556e-01
1.175e-01,1.730e-01
1.225e-01,1.913e-01
1.275e-01,2.105e-01
1.325e-01,2.306e-01
1.375e-01,2.517e-01
1.425e-01,2.737e-01
1.475e-01,2.965e-01
1.525e-01,3.202e-01
1.575e-01,3.447e-01
1.625e-01,3.700e-01
1.675e-01,3.961e-01
1.725e-01,4.230e-01
1.775e-01,4.505e-01
1.825e-01,4.788e-01
1.875e-01,5.077e-01
1.925e-01,5.372e-01
1.975e-01,5.674e-01
2.025e-01,5.981e-01
2.075e-01,6.293e-01
2.125e-01,6.610e-01
2.175e-01,6.932e-01
2.225e-01,7.258e-01
2.275e-01,7.588e-01
2.325e-01,7.921e-01
2.375e-01,8.257e-01
2.425e-01,8.597e-01
2.475e-01,8.938e-01
2.525e-01,9.281e-01
2.575e-01,9.626e-01
2.625e-01,9.972e-01
2.675e-01,1.032e+00
2.725e-01,1.067e+00
2.775e-01,1.101e+00
2.825e-01,1.136e+00
2.875e-01,1.171e+00
2.925e-01,1.205e+00
2.975e-01,1.239e+00
3.025e-01,1.273e+00
3.075e-01,1.307e+00
3.125e-01,1.341e+00
3.175e-01,1.374e+00
3.225e-01,1.407e+00
3.275e-01,1.440e+00
3.325e-01,1.472e+00
3.375e-01,1.503e+00
3.425e-01,1.535e+00
3.475e-01,1.565e+00
3.525e-01,1.595e+00
3.575e-01,1.625e+00
3.625e-01,1.654e+00
3.675e-01,1.682e+00
3.725e-01,1.710e+00
3.775e-01,1.737e+00
3.825e-01,1.763e+00
3.875e-01,1.788e+00
3.925e-01,1.813e+00
3.975e-01,1.836e+00
4.025e-01,1.859e+00
4.075e-01,1.881e+00
4.125e-01,1.902e+00
4.175e-01,1.922e+00
4.225e-01,1.942e+00
4.275e-01,1.960e+00
4.325e-01,1.977e+00
4.375e-01,1.993e+00
4.425e-01,2.009e+00
4.475e-01,2.023e+00
4.525e-01,2.036e+00
4.575e-01,2.048e+00
4.625e-01,2.059e+00
4.675e-01,2.069e+00
4.725e-01,2.078e+00
4.775e-01,2.086e+00
4.825e-01,2.092e+00
4.875e-01,2.098e+00
4.925e-01,2.102e+00
4.975e-01,2.105e+00
5.025e-01,2.107e+00
5.075e-01,2.108e+00
5.125e-01,2.108e+00
5.175e-01,2.106e+00
5.225e-01,2.104e+00
5.275e-01,2.100e+00
5.325e-01,2.095e+00
5.375e-01,2.089e+00
5.425e-01,2.082e+00
5.475e-01,2.074e+00
5.525e-01,2.064e+00
5.575e-01,2.054e+00
5.625e-01,2.042e+00
5.675e-01,2.029e+00
5.725e-01,2.016e+00
5.775e-01,2.001e+00
5.825e-01,1.985e+00
5.875e-01,1.968e+00
5.925e-01,1.950e+00
5.975e-01,1.931e+00
6.025e-01,1.911e+00
6.075e-01,1.890e+00
6.125e-01,1.868e+00
6.175e-01,1.846e+00
6.225e-01,1.822e+00
6.275e-01,1.797e+00
6.325e-01,1.772e+00
6.375e-01,1.746e+00
6.425e-01,1.719e+00
6.475e-01,1.691e+00
6.525e-01,1.663e+00
6.575e-01,1.634e+00
6.625e-01,1.604e+00
6.675e-01,1.574e+00
6.725e-01,1.543e+00
6.775e-01,1.511e+00
6.825e-01,1.479e+00
6.875e-01,1.446e+00
6.925e-01,1.413e+00
6.975e-01,1.380e+00
7.025e-01,1.346e+00
7.075e-01,1.312e+00
7.125e-01,1.277e+00
7.175e-01,1.242e+00
7.225e-01,1.207e+00
7.275e-01,1.172e+00
7.325e-01,1.137e+00
7.375e-01,1.101e+00
7.425e-01,1.066e+00
7.475e-01,1.030e+00
7.525e-01,9.944e-01
7.575e-01,9.589e-01
7.625e-01,9.235e-01
7.675e-01,8.883e-01
7.725e-01,8.532e-01
7.775e-01,8.184e-01
7.825e-01,7.838e-01
7.875e-01,7.496e-01
7.925e-01,7.157e-01
7.975e-01,6.821e-01
8.025e-01,6.491e-01
8.075e-01,6.165e-01
8.125e-01,5.844e-01
8.175e-01,5.529e-01
8.225e-01,5.219e-01
8.275e-01,4.916e-01
8.325e-01,4.620e-01
8.375e-01,4.331e-01
8.425e-01,4.049e-01
8.475e-01,3.775e-01
8.525e-01,3.509e-01
8.575e-01,3.251e-01
8.625e-01,3.002e-01
8.675e-01,2.762e-01
8.725e-01,2.532e-01
8.775e-01,2.310e-01
8.825e-01,2.099e-01
8.875e-01,1.897e-01
8.925e-01,1.706e-01
8.975e-01,1.525e-01
9.025e-01,1.354e-01
9.075e-01,1.194e-01
9.125e-01,1.044e-01
9.175e-01,9.056e-02
9.225e-01,7.774e-02
9.275e-01,6.599e-02
9.325e-01,5.530e-02
9.375e-01,4.566e-02
9.425e-01,3.705e-02
9.475e-01,2.946e-02
9.525e-01,2.285e-02
9.575e-01,1.721e-02
9.625e-01,1.248e-02
9.675e-01,8.623e-03
9.725e-01,5.588e-03
9.775e-01,3.309e-03
9.825e-01,1.710e-03
9.875e-01,7.034e-04
9.925e-01,1.812e-04
9.975e-01,9.646e-06
