transmittance,probability_density
2.500e-03,2.025e-03
7.500e-03,1.419e-02
1.250e-02,3.469e-02
1.750e-02,6.203e-02
2.250e-02,9.522e-02
2.750e-02,1.335e-01
3.250e-02,1.761e-01
3.750e-02,2.226e-01
4.250e-02,2.725e-01
4.750e-02,3.252e-01
5.250e-02,3.805e-01
5.750e-02,4.379e-01
6.250e-02,4.970e-01
6.750e-02,5.577e-01
7.250e-02,6.195e-01
7.750e-02,6.822e-01
8.250e-02,7.456e-01
8.750e-02,8.094e-01
9.250e-02,8.735e-01
9.750e-02,9.376e-01
1.025e-01,1.001e+00
1.075e-01,1.065e+00
1.125e-01,1.128e+00
1.175e-01,1.190e+00
1.225e-01,1.252e+00
1.275e-01,1.313e+00
1.325e-01,1.372e+00
1.375e-01,1.431e+00
1.425e-01,1.488e+00
1.475e-01,1.544e+00
1.525e-01,1.598e+00
1.575e-01,1.651e+00
1.625e-01,1.703e+00
1.675e-01,1.752e+00
1.725e-01,1.800e+00
1.775e-01,1.847e+00
1.825e-01,1.891e+00
1.875e-01,1.934e+00
1.925e-01,1.975e+00
1.975e-01,2.013e+00
2.025e-01,2.050e+00
2.075e-01,2.085e+00
2.125e-01,2.118e+00
2.175e-01,2.149e+00
2.225e-01,2.178e+00
2.275e-01,2.205e+00
2.325e-01,2.230e+00
2.375e-01,2.253e+00
2.425e-01,2.274e+00
2.475e-01,2.293e+00
2.525e-01,2.310e+00
2.575e-01,2.325e+00
2.625e-01,2.339e+00
2.675e-01,2.350e+00
2.725e-01,2.359e+00
2.775e-01,2.367e+00
2.825e-01,2.373e+00
2.875e-01,2.376e+00
2.925e-01,2.379e+00
2.975e-01,2.379e+00
3.025e-01,2.378e+00
3.075e-01,2.374e+00
3.125e-01,2.370e+00
3.175e-01,2.363e+00
3.225e-01,2.356e+00
3.275e-01,2.346e+00
3.325e-01,2.335e+00
3.375e-01,2.323e+00
3.425e-01,2.309e+00
3.475e-01,2.294e+00
3.525e-01,2.278e+00
3.575e-01,2.260e+00
3.625e-01,2.241e+00
3.675e-01,2.221e+00
3.725e-01,2.200e+00
3.775e-01,2.177e+00
3.825e-01,2.154e+00
3.875e-01,2.130e+00
3.925e-01,2.104e+00
3.975e-01,2.078e+00
4.025e-01,2.051e+00
4.075e-01,2.023e+00
4.125e-01,1.994e+00
4.175e-01,1.965e+00
4.225e-01,1.935e+00
4.275e-01,1.904e+00
4.325e-01,1.873e+00
4.375e-01,1.841e+00
4.425e-01,1.809e+00
4.475e-01,1.776e+00
4.525e-01,1.743e+00
4.575e-01,1.710e+00
4.625e-01,1.676e+00
4.675e-01,1.642e+00
4.725e-01,1.607e+00
4.775e-01,1.573e+00
4.825e-01,1.538e+00
4.875e-01,1.503e+00
4.925e-01,1.468e+00
4.975e-01,1.433e+00
5.025e-01,1.398e+00
5.075e-01,1.363e+00
5.125e-01,1.328e+00
5.175e-01,1.294e+00
5.225e-01,1.259e+00
5.275e-01,1.224e+00
5.325e-01,1.190e+00
5.375e-01,1.156e+00
5.425e-01,1.122e+00
5.475e-01,1.089e+00
5.525e-01,1.055e+00
5.575e-01,1.022e+00
5.625e-01,9.897e-01
5.675e-01,9.574e-01
5.725e-01,9.255e-01
5.775e-01,8.941e-01
5.825e-01,8.631e-01
5.875e-01,8.325e-01
5.925e-01,8.025e-01
5.975e-01,7.729e-01
6.025e-01,7.438e-01
6.075e-01,7.153e-01
6.125e-01,6.873e-01
6.175e-01,6.598e-01
6.225e-01,6.329e-01
6.275e-01,6.066e-01
6.325e-01,5.808e-01
6.375e-01,5.557e-01
6.425e-01,5.311e-01
6.475e-01,5.071e-01
6.525e-01,4.838e-01
6.575e-01,4.611e-01
6.625e-01,4.390e-01
6.675e-01,4.175e-01
6.725e-01,3.967e-01
6.775e-01,3.765e-01
6.825e-01,3.569e-01
6.875e-01,3.379e-01
6.925e-01,3.196e-01
6.975e-01,3.019e-01
7.025e-01,2.848e-01
7.075e-01,2.684e-01
7.125e-01,2.525e-01
7.175e-01,2.373e-01
7.225e-01,2.226e-01
7.275e-01,2.086e-01
7.325e-01,1.952e-01
7.375e-01,1.823e-01
7.425e-01,1.700e-01
7.475e-01,1.582e-01
7.525e-01,1.471e-01
7.575e-01,1.364e-01
7.625e-01,1.263e-01
7.675e-01,1.167e-01
7.725e-01,1.076e-01
7.775e-01,9.905e-02
7.825e-01,9.094e-02
7.875e-01,8.330e-02
7.925e-01,7.612e-02
7.975e-01,6.938e-02
8.025e-01,6.307e-02
8.075e-01,5.718e-02
8.125e-01,5.168e-02
8.175e-01,4.656e-02
8.225e-01,4.182e-02
8.275e-01,3.743e-02
8.325e-01,3.338e-02
8.375e-01,2.965e-02
8.425e-01,2.623e-02
8.475e-01,2.310e-02
8.525e-01,2.026e-02
8.575e-01,1.767e-02
8.625e-01,1.534e-02
8.675e-01,1.323e-02
8.725e-01,1.135e-02
8.775e-01,9.667e-03
8.825e-01,8.177e-03
8.875e-01,6.863e-03
8.925e-01,5.711e-03
8.975e-01,4.709e-03
9.025e-01,3.843e-03
9.075e-01,3.101e-03
9.125e-01,2.471e-03
9.175e-01,1.942e-03
9.225e-01,1.502e-03
9.275e-01,1.142e-03
9.325e-01,8.501e-04
9.375e-01,6.183e-04
9.425e-01,4.375e-04
9.475e-01,2.997e-04
9.525e-01,1.975e-04
9.575e-01,1.241e-04
9.625e-01,7.347e-05
9.675e-01,4.030e-05
9.725e-01,1.996e-05
9.775e-01,8.563e-06
9.825e-01,2.961e-06
9.875e-01,7.122e-07
9.925e-01,8.147e-08
9.975e-01,7.610e-10
