transmittance,probability_density
2.500e-03,3.582e-04
7.500e-03,3.456e-03
1.250e-02,9.817e-03
1.750e-02,1.940e-02
2.250e-02,3.213e-02
2.750e-02,4.787e-02
3.250e-02,6.650e-02
3.750e-02,8.789e-02
4.250e-02,1.119e-01
4.750e-02,1.384e-01
5.250e-02,1.672e-01
5.750e-02,1.982e-01
6.250e-02,2.312e-01
6.750e-02,2.661e-01
7.250e-02,3.028e-01
7.750e-02,3.411e-01
8.250e-02,3.809e-01
8.750e-02,4.221e-01
9.250e-02,4.644e-01
9.750e-02,5.079e-01
1.025e-01,5.524e-01
1.075e-01,5.977e-01
1.125e-01,6.437e-01
1.175e-01,6.904e-01
1.225e-01,7.376e-01
1.275e-01,7.852e-01
1.325e-01,8.331e-01
1.375e-01,8.811e-01
1.425e-01,9.293e-01
1.475e-01,9.775e-01
1.525e-01,1.026e+00
1.575e-01,1.074e+00
1.625e-01,1.121e+00
1.675e-01,1.169e+00
1.725e-01,1.216e+00
1.775e-01,1.262e+00
1.825e-01,1.308e+00
1.875e-01,1.353e+00
1.925e-01,1.398e+00
1.975e-01,1.441e+00
2.025e-01,1.484e+00
2.075e-01,1.527e+00
2.125e-01,1.568e+00
2.175e-01,1.608e+00
2.225e-01,1.647e+00
2.275e-01,1.685e+00
2.325e-01,1.722e+00
2.375e-01,1.758e+00
2.425e-01,1.793e+00
2.475e-01,1.826e+00
2.525e-01,1.858e+00
2.575e-01,1.889e+00
2.625e-01,1.919e+00
2.675e-01,1.947e+00
2.725e-01,1.974e+00
2.775e-01,1.999e+00
2.825e-01,2.024e+00
2.875e-01,2.046e+00
2.925e-01,2.068e+00
2.975e-01,2.088e+00
3.025e-01,2.106e+00
3.075e-01,2.123e+00
3.125e-01,2.139e+00
3.175e-01,2.153e+00
3.225e-01,2.166e+00
3.275e-01,2.177e+00
3.325e-01,2.187e+00
3.375e-01,2.195e+00
3.425e-01,2.202e+00
3.475e-01,2.208e+00
3.525e-01,2.212e+00
3.575e-01,2.215e+00
3.625e-01,2.216e+00
3.675e-01,2.216e+00
3.725e-01,2.215e+00
3.775e-01,2.212e+00
3.825e-01,2.208e+00
3.875e-01,2.202e+00
3.925e-01,2.196e+00
3.975e-01,2.188e+00
4.025e-01,2.179e+00
4.075e-01,2.169e+00
4.125e-01,2.157e+00
4.175e-01,2.145e+00
4.225e-01,2.131e+00
4.275e-01,2.116e+00
4.325e-01,2.100e+00
4.375e-01,2.083e+00
4.425e-01,2.065e+00
4.475e-01,2.046e+00
4.525e-01,2.026e+00
4.575e-01,2.005e+00
4.625e-01,1.983e+00
4.675e-01,1.961e+00
4.725e-01,1.937e+00
4.775e-01,1.913e+00
4.825e-01,1.888e+00
4.875e-01,1.863e+00
4.925e-01,1.836e+00
4.975e-01,1.809e+00
5.025e-01,1.782e+00
5.075e-01,1.753e+00
5.125e-01,1.725e+00
5.175e-01,1.695e+00
5.225e-01,1.666e+00
5.275e-01,1.635e+00
5.325e-01,1.605e+00
5.375e-01,1.574e+00
5.425e-01,1.543e+00
5.475e-01,1.511e+00
5.525e-01,1.479e+00
5.575e-01,1.447e+00
5.625e-01,1.415e+00
5.675e-01,1.382e+00
5.725e-01,1.350e+00
5.775e-01,1.317e+00
5.825e-01,1.284e+00
5.875e-01,1.252e+00
5.925e-01,1.219e+00
5.975e-01,1.186e+00
6.025e-01,1.154e+00
6.075e-01,1.121e+00
6.125e-01,1.089e+00
6.175e-01,1.056e+00
6.225e-01,1.024e+00
6.275e-01,9.924e-01
6.325e-01,9.608e-01
6.375e-01,9.294e-01
6.425e-01,8.983e-01
6.475e-01,8.676e-01
6.525e-01,8.371e-01
6.575e-01,8.071e-01
6.625e-01,7.774e-01
6.675e-01,7.481e-01
6.725e-01,7.193e-01
6.775e-01,6.909e-01
6.825e-01,6.630e-01
6.875e-01,6.355e-01
6.925e-01,6.086e-01
6.975e-01,5.822e-01
7.025e-01,5.563e-01
7.075e-01,5.310e-01
7.125e-01,5.062e-01
7.175e-01,4.821e-01
7.225e-01,4.585e-01
7.275e-01,4.355e-01
7.325e-01,4.131e-01
7.375e-01,3.913e-01
7.425e-01,3.702e-01
7.475e-01,3.497e-01
7.525e-01,3.298e-01
7.575e-01,3.106e-01
7.625e-01,2.920e-01
7.675e-01,2.740e-01
7.725e-01,2.568e-01
7.775e-01,2.401e-01
7.825e-01,2.241e-01
7.875e-01,2.088e-01
7.925e-01,1.941e-01
7.975e-01,1.800e-01
8.025e-01,1.666e-01
8.075e-01,1.538e-01
8.125e-01,1.416e-01
8.175e-01,1.301e-01
8.225e-01,1.192e-01
8.275e-01,1.088e-01
8.325e-01,9.906e-02
8.375e-01,8.988e-02
8.425e-01,8.127e-02
8.475e-01,7.321e-02
8.525e-01,6.569e-02
8.575e-01,5.869e-02
8.625e-01,5.220e-02
8.675e-01,4.621e-02
8.725e-01,4.069e-02
8.775e-01,3.562e-02
8.825e-01,3.100e-02
8.875e-01,2.680e-02
8.925e-01,2.300e-02
8.975e-01,1.959e-02
9.025e-01,1.653e-02
9.075e-01,1.382e-02
9.125e-01,1.144e-02
9.175e-01,9.348e-03
9.225e-01,7.540e-03
9.275e-01,5.990e-03
9.325e-01,4.677e-03
9.375e-01,3.580e-03
9.425e-01,2.677e-03
9.475e-01,1.947e-03
9.525e-01,1.370e-03
9.575e-01,9.264e-04
9.625e-01,5.954e-04
9.675e-01,3.586e-04
9.725e-01,1.980e-04
9.775e-01,9.681e-05
9.825e-01,3.941e-05
9.875e-01,1.179e-05
9.925e-01,1.875e-06
9.975e-01,3.556e-08
