transmittance,probability_density
2.500e-03,1.790e-15
7.500e-03,2.162e-12
1.250e-02,5.840e-11
1.750e-02,5.108e-10
2.250e-02,2.576e-09
2.750e-02,9.362e-09
3.250e-02,2.738e-08
3.750e-02,6.857e-08
4.250e-02,1.529e-07
4.750e-02,3.117e-07
5.250e-02,5.910e-07
5.750e-02,1.057e-06
6.250e-02,1.798e-06
6.750e-02,2.936e-06
7.250e-02,4.626e-06
7.750e-02,7.067e-06
8.250e-02,1.051e-05
8.750e-02,1.526e-05
9.250e-02,2.169e-05
9.750e-02,3.025e-05
1.025e-01,4.148e-05
1.075e-01,5.601e-05
1.125e-01,7.457e-05
1.175e-01,9.801e-05
1.225e-01,1.273e-04
1.275e-01,1.636e-04
1.325e-01,2.082e-04
1.375e-01,2.624e-04
1.425e-01,3.279e-04
1.475e-01,4.065e-04
1.525e-01,5.002e-04
1.575e-01,6.112e-04
1.625e-01,7.420e-04
1.675e-01,8.952e-04
1.725e-01,1.074e-03
1.775e-01,1.281e-03
1.825e-01,1.520e-03
1.875e-01,1.795e-03
1.925e-01,2.110e-03
1.975e-01,2.469e-03
2.025e-01,2.877e-03
2.075e-01,3.340e-03
2.125e-01,3.862e-03
2.175e-01,4.449e-03
2.225e-01,5.108e-03
2.275e-01,5.845e-03
2.325e-01,6.667e-03
2.375e-01,7.581e-03
2.425e-01,8.596e-03
2.475e-01,9.719e-03
2.525e-01,1.096e-02
2.575e-01,1.233e-02
2.625e-01,1.383e-02
2.675e-01,1.548e-02
2.725e-01,1.728e-02
2.775e-01,1.925e-02
2.825e-01,2.140e-02
2.875e-01,2.374e-02
2.925e-01,2.629e-02
2.975e-01,2.904e-02
3.025e-01,3.203e-02
3.075e-01,3.526e-02
3.125e-01,3.875e-02
3.175e-01,4.250e-02
3.225e-01,4.655e-02
3.275e-01,5.089e-02
3.325e-01,5.555e-02
3.375e-01,6.055e-02
3.425e-01,6.590e-02
3.475e-01,7.161e-02
3.525e-01,7.771e-02
3.575e-01,8.421e-02
3.625e-01,9.114e-02
3.675e-01,9.850e-02
3.725e-01,1.063e-01
3.775e-01,1.146e-01
3.825e-01,1.234e-01
3.875e-01,1.327e-01
3.925e-01,1.426e-01
3.975e-01,1.530e-01
4.025e-01,1.640e-01
4.075e-01,1.755e-01
4.125e-01,1.877e-01
4.175e-01,2.005e-01
4.225e-01,2.140e-01
4.275e-01,2.282e-01
4.325e-01,2.430e-01
4.375e-01,2.586e-01
4.425e-01,2.749e-01
4.475e-01,2.920e-01
4.525e-01,3.098e-01
4.575e-01,3.284e-01
4.625e-01,3.478e-01
4.675e-01,3.681e-01
4.725e-01,3.892e-01
4.775e-01,4.112e-01
4.825e-01,4.340e-01
4.875e-01,4.577e-01
4.925e-01,4.824e-01
4.975e-01,5.079e-01
5.025e-01,5.344e-01
5.075e-01,5.618e-01
5.125e-01,5.902e-01
5.175e-01,6.196e-01
5.225e-01,6.499e-01
5.275e-01,6.812e-01
5.325e-01,7.135e-01
5.375e-01,7.467e-01
5.425e-01,7.810e-01
5.475e-01,8.162e-01
5.525e-01,8.524e-01
5.575e-01,8.896e-01
5.625e-01,9.278e-01
5.675e-01,9.669e-01
5.725e-01,1.007e+00
5.775e-01,1.048e+00
5.825e-01,1.090e+00
5.875e-01,1.133e+00
5.925e-01,1.177e+00
5.975e-01,1.221e+00
6.025e-01,1.267e+00
6.075e-01,1.313e+00
6.125e-01,1.361e+00
6.175e-01,1.408e+00
6.225e-01,1.457e+00
6.275e-01,1.506e+00
6.325e-01,1.556e+00
6.375e-01,1.607e+00
6.425e-01,1.658e+00
6.475e-01,1.710e+00
6.525e-01,1.762e+00
6.575e-01,1.814e+00
6.625e-01,1.867e+00
6.675e-01,1.920e+00
6.725e-01,1.973e+00
6.775e-01,2.026e+00
6.825e-01,2.080e+00
6.875e-01,2.133e+00
6.925e-01,2.186e+00
6.975e-01,2.238e+00
7.025e-01,2.291e+00
7.075e-01,2.343e+00
7.125e-01,2.394e+00
7.175e-01,2.445e+00
7.225e-01,2.495e+00
7.275e-01,2.544e+00
7.325e-01,2.592e+00
7.375e-01,2.639e+00
7.425e-01,2.684e+00
7.475e-01,2.728e+00
7.525e-01,2.771e+00
7.575e-01,2.811e+00
7.625e-01,2.850e+00
7.675e-01,2.887e+00
7.725e-01,2.922e+00
7.775e-01,2.954e+00
7.825e-01,2.984e+00
7.875e-01,3.011e+00
7.925e-01,3.035e+00
7.975e-01,3.056e+00
8.025e-01,3.074e+00
8.075e-01,3.089e+00
8.125e-01,3.100e+00
8.175e-01,3.107e+00
8.225e-01,3.110e+00
8.275e-01,3.109e+00
8.325e-01,3.104e+00
8.375e-01,3.094e+00
8.425e-01,3.079e+00
8.475e-01,3.060e+00
8.525e-01,3.035e+00
8.575e-01,3.005e+00
8.625e-01,2.970e+00
8.675e-01,2.929e+00
8.725e-01,2.883e+00
8.775e-01,2.830e+00
8.825e-01,2.772e+00
8.875e-01,2.707e+00
8.925e-01,2.636e+00
8.975e-01,2.559e+00
9.025e-01,2.475e+00
9.075e-01,2.385e+00
9.125e-01,2.289e+00
9.175e-01,2.186e+00
9.225e-01,2.076e+00
9.275e-01,1.961e+00
9.325e-01,1.839e+00
9.375e-01,1.712e+00
9.425e-01,1.579e+00
9.475e-01,1.441e+00
9.525e-01,1.298e+00
9.575e-01,1.151e+00
9.625e-01,1.001e+00
9.675e-01,8.496e-01
9.725e-01,6.972e-01
9.775e-01,5.461e-01
9.825e-01,3.987e-01
9.875e-01,2.588e-01
9.925e-01,1.319e-01
9.975e-01,2.983e-02
