transmittance,probability_density
2.500e-03,2.583e-14
7.500e-03,1.894e-11
1.250e-02,4.055e-10
1.750e-02,3.043e-09
2.250e-02,1.369e-08
2.750e-02,4.540e-08
3.250e-02,1.230e-07
3.750e-02,2.886e-07
4.250e-02,6.080e-07
4.750e-02,1.178e-06
5.250e-02,2.133e-06
5.750e-02,3.658e-06
6.250e-02,5.993e-06
6.750e-02,9.446e-06
7.250e-02,1.440e-05
7.750e-02,2.134e-05
8.250e-02,3.083e-05
8.750e-02,4.358e-05
9.250e-02,6.038e-05
9.750e-02,8.220e-05
1.025e-01,1.102e-04
1.075e-01,1.455e-04
1.125e-01,1.897e-04
1.175e-01,2.444e-04
1.225e-01,3.114e-04
1.275e-01,3.928e-04
1.325e-01,4.909e-04
1.375e-01,6.083e-04
1.425e-01,7.477e-04
1.475e-01,9.123e-04
1.525e-01,1.105e-03
1.575e-01,1.331e-03
1.625e-01,1.592e-03
1.675e-01,1.894e-03
1.725e-01,2.240e-03
1.775e-01,2.637e-03
1.825e-01,3.089e-03
1.875e-01,3.603e-03
1.925e-01,4.183e-03
1.975e-01,4.837e-03
2.025e-01,5.571e-03
2.075e-01,6.392e-03
2.125e-01,7.309e-03
2.175e-01,8.330e-03
2.225e-01,9.462e-03
2.275e-01,1.071e-02
2.325e-01,1.210e-02
2.375e-01,1.362e-02
2.425e-01,1.529e-02
2.475e-01,1.712e-02
2.525e-01,1.913e-02
2.575e-01,2.131e-02
2.625e-01,2.369e-02
2.675e-01,2.628e-02
2.725e-01,2.909e-02
2.775e-01,3.213e-02
2.825e-01,3.541e-02
2.875e-01,3.896e-02
2.925e-01,4.278e-02
2.975e-01,4.688e-02
3.025e-01,5.130e-02
3.075e-01,5.603e-02
3.125e-01,6.109e-02
3.175e-01,6.651e-02
3.225e-01,7.229e-02
3.275e-01,7.845e-02
3.325e-01,8.502e-02
3.375e-01,9.200e-02
3.425e-01,9.941e-02
3.475e-01,1.073e-01
3.525e-01,1.156e-01
3.575e-01,1.244e-01
3.625e-01,1.338e-01
3.675e-01,1.436e-01
3.725e-01,1.540e-01
3.775e-01,1.649e-01
3.825e-01,1.765e-01
3.875e-01,1.886e-01
3.925e-01,2.013e-01
3.975e-01,2.146e-01
4.025e-01,2.286e-01
4.075e-01,2.433e-01
4.125e-01,2.586e-01
4.175e-01,2.747e-01
4.225e-01,2.914e-01
4.275e-01,3.089e-01
4.325e-01,3.271e-01
4.375e-01,3.460e-01
4.425e-01,3.658e-01
4.475e-01,3.863e-01
4.525e-01,4.076e-01
4.575e-01,4.298e-01
4.625e-01,4.527e-01
4.675e-01,4.765e-01
4.725e-01,5.011e-01
4.775e-01,5.266e-01
4.825e-01,5.529e-01
4.875e-01,5.801e-01
4.925e-01,6.082e-01
4.975e-01,6.371e-01
5.025e-01,6.669e-01
5.075e-01,6.976e-01
5.125e-01,7.292e-01
5.175e-01,7.617e-01
5.225e-01,7.950e-01
5.275e-01,8.292e-01
5.325e-01,8.642e-01
5.375e-01,9.002e-01
5.425e-01,9.369e-01
5.475e-01,9.745e-01
5.525e-01,1.013e+00
5.575e-01,1.052e+00
5.625e-01,1.092e+00
5.675e-01,1.133e+00
5.725e-01,1.175e+00
5.775e-01,1.217e+00
5.825e-01,1.260e+00
5.875e-01,1.303e+00
5.925e-01,1.348e+00
5.975e-01,1.393e+00
6.025e-01,1.438e+00
6.075e-01,1.484e+00
6.125e-01,1.531e+00
6.175e-01,1.577e+00
6.225e-01,1.625e+00
6.275e-01,1.672e+00
6.325e-01,1.720e+00
6.375e-01,1.769e+00
6.425e-01,1.817e+00
6.475e-01,1.865e+00
6.525e-01,1.914e+00
6.575e-01,1.963e+00
6.625e-01,2.011e+00
6.675e-01,2.059e+00
6.725e-01,2.107e+00
6.775e-01,2.155e+00
6.825e-01,2.203e+00
6.875e-01,2.249e+00
6.925e-01,2.296e+00
6.975e-01,2.341e+00
7.025e-01,2.386e+00
7.075e-01,2.430e+00
7.125e-01,2.473e+00
7.175e-01,2.515e+00
7.225e-01,2.556e+00
7.275e-01,2.595e+00
7.325e-01,2.633e+00
7.375e-01,2.670e+00
7.425e-01,2.704e+00
7.475e-01,2.738e+00
7.525e-01,2.769e+00
7.575e-01,2.798e+00
7.625e-01,2.825e+00
7.675e-01,2.849e+00
7.725e-01,2.872e+00
7.775e-01,2.891e+00
7.825e-01,2.908e+00
7.875e-01,2.922e+00
7.925e-01,2.933e+00
7.975e-01,2.941e+00
8.025e-01,2.946e+00
8.075e-01,2.948e+00
8.125e-01,2.945e+00
8.175e-01,2.940e+00
8.225e-01,2.930e+00
8.275e-01,2.916e+00
8.325e-01,2.899e+00
8.375e-01,2.877e+00
8.425e-01,2.850e+00
8.475e-01,2.820e+00
8.525e-01,2.784e+00
8.575e-01,2.744e+00
8.625e-01,2.700e+00
8.675e-01,2.650e+00
8.725e-01,2.596e+00
8.775e-01,2.536e+00
8.825e-01,2.472e+00
8.875e-01,2.402e+00
8.925e-01,2.327e+00
8.975e-01,2.247e+00
9.025e-01,2.162e+00
9.075e-01,2.073e+00
9.125e-01,1.978e+00
9.175e-01,1.878e+00
9.225e-01,1.773e+00
9.275e-01,1.664e+00
9.325e-01,1.551e+00
9.375e-01,1.434e+00
9.425e-01,1.313e+00
9.475e-01,1.189e+00
9.525e-01,1.063e+00
9.575e-01,9.348e-01
9.625e-01,8.057e-01
9.675e-01,6.765e-01
9.725e-01,5.488e-01
9.775e-01,4.241e-01
9.825e-01,3.046e-01
9.875e-01,1.936e-01
9.925e-01,9.571e-02
9.975e-01,2.032e-02
