transmittance,probability_density
2.500e-03,2.957e-12
7.500e-03,8.950e-10
1.250e-02,1.269e-08
1.750e-02,7.260e-08
2.250e-02,2.665e-07
2.750e-02,7.517e-07
3.250e-02,1.779e-06
3.750e-02,3.718e-06
4.250e-02,7.077e-06
4.750e-02,1.253e-05
5.250e-02,2.092e-05
5.750e-02,3.331e-05
6.250e-02,5.100e-05
6.750e-02,7.549e-05
7.250e-02,1.086e-04
7.750e-02,1.524e-04
8.250e-02,2.092e-04
8.750e-02,2.818e-04
9.250e-02,3.731e-04
9.750e-02,4.866e-04
1.025e-01,6.258e-04
1.075e-01,7.949e-04
1.125e-01,9.984e-04
1.175e-01,1.241e-03
1.225e-01,1.528e-03
1.275e-01,1.865e-03
1.325e-01,2.258e-03
1.375e-01,2.714e-03
1.425e-01,3.239e-03
1.475e-01,3.840e-03
1.525e-01,4.526e-03
1.575e-01,5.304e-03
1.625e-01,6.183e-03
1.675e-01,7.172e-03
1.725e-01,8.281e-03
1.775e-01,9.518e-03
1.825e-01,1.089e-02
1.875e-01,1.242e-02
1.925e-01,1.411e-02
1.975e-01,1.596e-02
2.025e-01,1.801e-02
2.075e-01,2.024e-02
2.125e-01,2.269e-02
2.175e-01,2.535e-02
2.225e-01,2.825e-02
2.275e-01,3.140e-02
2.325e-01,3.481e-02
2.375e-01,3.849e-02
2.425e-01,4.245e-02
2.475e-01,4.672e-02
2.525e-01,5.131e-02
2.575e-01,5.623e-02
2.625e-01,6.150e-02
2.675e-01,6.712e-02
2.725e-01,7.313e-02
2.775e-01,7.952e-02
2.825e-01,8.632e-02
2.875e-01,9.354e-02
2.925e-01,1.012e-01
2.975e-01,1.093e-01
3.025e-01,1.179e-01
3.075e-01,1.270e-01
3.125e-01,1.365e-01
3.175e-01,1.466e-01
3.225e-01,1.572e-01
3.275e-01,1.683e-01
3.325e-01,1.800e-01
3.375e-01,1.923e-01
3.425e-01,2.051e-01
3.475e-01,2.185e-01
3.525e-01,2.326e-01
3.575e-01,2.473e-01
3.625e-01,2.626e-01
3.675e-01,2.785e-01
3.725e-01,2.951e-01
3.775e-01,3.124e-01
3.825e-01,3.303e-01
3.875e-01,3.489e-01
3.925e-01,3.682e-01
3.975e-01,3.882e-01
4.025e-01,4.089e-01
4.075e-01,4.304e-01
4.125e-01,4.525e-01
4.175e-01,4.754e-01
4.225e-01,4.990e-01
4.275e-01,5.233e-01
4.325e-01,5.483e-01
4.375e-01,5.741e-01
4.425e-01,6.006e-01
4.475e-01,6.278e-01
4.525e-01,6.558e-01
4.575e-01,6.844e-01
4.625e-01,7.138e-01
4.675e-01,7.439e-01
4.725e-01,7.747e-01
4.775e-01,8.062e-01
4.825e-01,8.383e-01
4.875e-01,8.712e-01
4.925e-01,9.047e-01
4.975e-01,9.388e-01
5.025e-01,9.735e-01
5.075e-01,1.009e+00
5.125e-01,1.045e+00
5.175e-01,1.081e+00
5.225e-01,1.118e+00
5.275e-01,1.156e+00
5.325e-01,1.194e+00
5.375e-01,1.232e+00
5.425e-01,1.271e+00
5.475e-01,1.311e+00
5.525e-01,1.351e+00
5.575e-01,1.391e+00
5.625e-01,1.431e+00
5.675e-01,1.472e+00
5.725e-01,1.512e+00
5.775e-01,1.554e+00
5.825e-01,1.595e+00
5.875e-01,1.636e+00
5.925e-01,1.677e+00
5.975e-01,1.719e+00
6.025e-01,1.760e+00
6.075e-01,1.801e+00
6.125e-01,1.842e+00
6.175e-01,1.883e+00
6.225e-01,1.923e+00
6.275e-01,1.964e+00
6.325e-01,2.003e+00
6.375e-01,2.043e+00
6.425e-01,2.082e+00
6.475e-01,2.120e+00
6.525e-01,2.157e+00
6.575e-01,2.194e+00
6.625e-01,2.230e+00
6.675e-01,2.266e+00
6.725e-01,2.300e+00
6.775e-01,2.333e+00
6.825e-01,2.365e+00
6.875e-01,2.397e+00
6.925e-01,2.426e+00
6.975e-01,2.455e+00
7.025e-01,2.482e+00
7.075e-01,2.508e+00
7.125e-01,2.532e+00
7.175e-01,2.554e+00
7.225e-01,2.575e+00
7.275e-01,2.594e+00
7.325e-01,2.611e+00
7.375e-01,2.626e+00
7.425e-01,2.639e+00
7.475e-01,2.650e+00
7.525e-01,2.658e+00
7.575e-01,2.665e+00
7.625e-01,2.669e+00
7.675e-01,2.670e+00
7.725e-01,2.669e+00
7.775e-01,2.665e+00
7.825e-01,2.659e+00
7.875e-01,2.650e+00
7.925e-01,2.638e+00
7.975e-01,2.623e+00
8.025e-01,2.606e+00
8.075e-01,2.585e+00
8.125e-01,2.561e+00
8.175e-01,2.534e+00
8.225e-01,2.504e+00
8.275e-01,2.471e+00
8.325e-01,2.434e+00
8.375e-01,2.394e+00
8.425e-01,2.351e+00
8.475e-01,2.305e+00
8.525e-01,2.255e+00
8.575e-01,2.202e+00
8.625e-01,2.146e+00
8.675e-01,2.086e+00
8.725e-01,2.024e+00
8.775e-01,1.958e+00
8.825e-01,1.888e+00
8.875e-01,1.816e+00
8.925e-01,1.741e+00
8.975e-01,1.663e+00
9.025e-01,1.582e+00
9.075e-01,1.499e+00
9.125e-01,1.414e+00
9.175e-01,1.326e+00
9.225e-01,1.236e+00
9.275e-01,1.145e+00
9.325e-01,1.052e+00
9.375e-01,9.585e-01
9.425e-01,8.643e-01
9.475e-01,7.700e-01
9.525e-01,6.762e-01
9.575e-01,5.833e-01
9.625e-01,4.923e-01
9.675e-01,4.038e-01
9.725e-01,3.189e-01
9.775e-01,2.389e-01
9.825e-01,1.652e-01
9.875e-01,9.995e-02
9.925e-01,4.595e-02
9.975e-01,8.379e-03
