transmittance,probability_density
2.500e-03,1.084e-09
7.500e-03,1.094e-07
1.250e-02,9.307e-07
1.750e-02,3.800e-06
2.250e-02,1.084e-05
2.750e-02,2.498e-05
3.250e-02,4.999e-05
3.750e-02,9.043e-05
4.250e-02,1.517e-04
4.750e-02,2.399e-04
5.250e-02,3.620e-04
5.750e-02,5.257e-04
6.250e-02,7.394e-04
6.750e-02,1.012e-03
7.250e-02,1.354e-03
7.750e-02,1.775e-03
8.250e-02,2.286e-03
8.750e-02,2.899e-03
9.250e-02,3.626e-03
9.750e-02,4.480e-03
1.025e-01,5.473e-03
1.075e-01,6.619e-03
1.125e-01,7.932e-03
1.175e-01,9.426e-03
1.225e-01,1.112e-02
1.275e-01,1.302e-02
1.325e-01,1.514e-02
1.375e-01,1.751e-02
1.425e-01,2.013e-02
1.475e-01,2.303e-02
1.525e-01,2.621e-02
1.575e-01,2.970e-02
1.625e-01,3.351e-02
1.675e-01,3.765e-02
1.725e-01,4.214e-02
1.775e-01,4.699e-02
1.825e-01,5.223e-02
1.875e-01,5.787e-02
1.925e-01,6.391e-02
1.975e-01,7.039e-02
2.025e-01,7.730e-02
2.075e-01,8.467e-02
2.125e-01,9.251e-02
2.175e-01,1.008e-01
2.225e-01,1.097e-01
2.275e-01,1.190e-01
2.325e-01,1.288e-01
2.375e-01,1.392e-01
2.425e-01,1.501e-01
2.475e-01,1.616e-01
2.525e-01,1.737e-01
2.575e-01,1.863e-01
2.625e-01,1.995e-01
2.675e-01,2.133e-01
2.725e-01,2.277e-01
2.775e-01,2.427e-01
2.825e-01,2.583e-01
2.875e-01,2.746e-01
2.925e-01,2.914e-01
2.975e-01,3.089e-01
3.025e-01,3.270e-01
3.075e-01,3.458e-01
3.125e-01,3.651e-01
3.175e-01,3.851e-01
3.225e-01,4.058e-01
3.275e-01,4.271e-01
3.325e-01,4.490e-01
3.375e-01,4.715e-01
3.425e-01,4.947e-01
3.475e-01,5.184e-01
3.525e-01,5.428e-01
3.575e-01,5.678e-01
3.625e-01,5.934e-01
3.675e-01,6.195e-01
3.725e-01,6.463e-01
3.775e-01,6.736e-01
3.825e-01,7.014e-01
3.875e-01,7.298e-01
3.925e-01,7.587e-01
3.975e-01,7.882e-01
4.025e-01,8.181e-01
4.075e-01,8.485e-01
4.125e-01,8.793e-01
4.175e-01,9.106e-01
4.225e-01,9.423e-01
4.275e-01,9.744e-01
4.325e-01,1.007e+00
4.375e-01,1.040e+00
4.425e-01,1.073e+00
4.475e-01,1.106e+00
4.525e-01,1.140e+00
4.575e-01,1.174e+00
4.625e-01,1.208e+00
4.675e-01,1.242e+00
4.725e-01,1.277e+00
4.775e-01,1.312e+00
4.825e-01,1.346e+00
4.875e-01,1.381e+00
4.925e-01,1.416e+00
4.975e-01,1.451e+00
5.025e-01,1.485e+00
5.075e-01,1.520e+00
5.125e-01,1.555e+00
5.175e-01,1.589e+00
5.225e-01,1.623e+00
5.275e-01,1.657e+00
5.325e-01,1.691e+00
5.375e-01,1.724e+00
5.425e-01,1.757e+00
5.475e-01,1.790e+00
5.525e-01,1.822e+00
5.575e-01,1.854e+00
5.625e-01,1.885e+00
5.675e-01,1.915e+00
5.725e-01,1.945e+00
5.775e-01,1.974e+00
5.825e-01,2.003e+00
5.875e-01,2.031e+00
5.925e-01,2.058e+00
5.975e-01,2.084e+00
6.025e-01,2.109e+00
6.075e-01,2.133e+00
6.125e-01,2.157e+00
6.175e-01,2.179e+00
6.225e-01,2.200e+00
6.275e-01,2.220e+00
6.325e-01,2.239e+00
6.375e-01,2.257e+00
6.425e-01,2.274e+00
6.475e-01,2.289e+00
6.525e-01,2.303e+00
6.575e-01,2.315e+00
6.625e-01,2.327e+00
6.675e-01,2.336e+00
6.725e-01,2.344e+00
6.775e-01,2.351e+00
6.825e-01,2.356e+00
6.875e-01,2.360e+00
6.925e-01,2.361e+00
6.975e-01,2.362e+00
7.025e-01,2.360e+00
7.075e-01,2.357e+00
7.125e-01,2.352e+00
7.175e-01,2.345e+00
7.225e-01,2.337e+00
7.275e-01,2.326e+00
7.325e-01,2.314e+00
7.375e-01,2.300e+00
7.425e-01,2.284e+00
7.475e-01,2.266e+00
7.525e-01,2.246e+00
7.575e-01,2.224e+00
7.625e-01,2.201e+00
7.675e-01,2.175e+00
7.725e-01,2.148e+00
7.775e-01,2.118e+00
7.825e-01,2.087e+00
7.875e-01,2.054e+00
7.925e-01,2.019e+00
7.975e-01,1.982e+00
8.025e-01,1.943e+00
8.075e-01,1.902e+00
8.125e-01,1.860e+00
8.175e-01,1.816e+00
8.225e-01,1.770e+00
8.275e-01,1.723e+00
8.325e-01,1.674e+00
8.375e-01,1.624e+00
8.425e-01,1.572e+00
8.475e-01,1.518e+00
8.525e-01,1.464e+00
8.575e-01,1.408e+00
8.625e-01,1.351e+00
8.675e-01,1.293e+00
8.725e-01,1.234e+00
8.775e-01,1.174e+00
8.825e-01,1.114e+00
8.875e-01,1.053e+00
8.925e-01,9.913e-01
8.975e-01,9.296e-01
9.025e-01,8.679e-01
9.075e-01,8.062e-01
9.125e-01,7.448e-01
9.175e-01,6.838e-01
9.225e-01,6.236e-01
9.275e-01,5.642e-01
9.325e-01,5.059e-01
9.375e-01,4.490e-01
9.425e-01,3.938e-01
9.475e-01,3.406e-01
9.525e-01,2.896e-01
9.575e-01,2.412e-01
9.625e-01,1.958e-01
9.675e-01,1.537e-01
9.725e-01,1.155e-01
9.775e-01,8.155e-02
9.825e-01,5.244e-02
9.875e-01,2.883e-02
9.925e-01,1.149e-02
9.975e-01,1.552e-03
