transmittance,probability_density
2.500e-03,2.720e-08
7.500e-03,1.511e-06
1.250e-02,9.728e-06
1.750e-02,3.305e-05
2.250e-02,8.217e-05
2.750e-02,1.697e-04
3.250e-02,3.097e-04
3.750e-02,5.178e-04
4.250e-02,8.105e-04
4.750e-02,1.205e-03
5.250e-02,1.721e-03
5.750e-02,2.376e-03
6.250e-02,3.190e-03
6.750e-02,4.184e-03
7.250e-02,5.376e-03
7.750e-02,6.789e-03
8.250e-02,8.443e-03
8.750e-02,1.036e-02
9.250e-02,1.255e-02
9.750e-02,1.505e-02
1.025e-01,1.788e-02
1.075e-01,2.104e-02
1.125e-01,2.457e-02
1.175e-01,2.848e-02
1.225e-01,3.280e-02
1.275e-01,3.753e-02
1.325e-01,4.270e-02
1.375e-01,4.833e-02
1.425e-01,5.444e-02
1.475e-01,6.103e-02
1.525e-01,6.813e-02
1.575e-01,7.575e-02
1.625e-01,8.391e-02
1.675e-01,9.261e-02
1.725e-01,1.019e-01
1.775e-01,1.117e-01
1.825e-01,1.221e-01
1.875e-01,1.332e-01
1.925e-01,1.448e-01
1.975e-01,1.570e-01
2.025e-01,1.699e-01
2.075e-01,1.834e-01
2.125e-01,1.975e-01
2.175e-01,2.123e-01
2.225e-01,2.277e-01
2.275e-01,2.437e-01
2.325e-01,2.604e-01
2.375e-01,2.778e-01
2.425e-01,2.958e-01
2.475e-01,3.144e-01
2.525e-01,3.337e-01
2.575e-01,3.536e-01
2.625e-01,3.742e-01
2.675e-01,3.954e-01
2.725e-01,4.172e-01
2.775e-01,4.397e-01
2.825e-01,4.627e-01
2.875e-01,4.864e-01
2.925e-01,5.106e-01
2.975e-01,5.354e-01
3.025e-01,5.608e-01
3.075e-01,5.867e-01
3.125e-01,6.132e-01
3.175e-01,6.402e-01
3.225e-01,6.677e-01
3.275e-01,6.957e-01
3.325e-01,7.242e-01
3.375e-01,7.531e-01
3.425e-01,7.825e-01
3.475e-01,8.122e-01
3.525e-01,8.424e-01
3.575e-01,8.729e-01
3.625e-01,9.038e-01
3.675e-01,9.350e-01
3.725e-01,9.665e-01
3.775e-01,9.982e-01
3.825e-01,1.030e+00
3.875e-01,1.062e+00
3.925e-01,1.095e+00
3.975e-01,1.127e+00
4.025e-01,1.160e+00
4.075e-01,1.193e+00
4.125e-01,1.226e+00
4.175e-01,1.259e+00
4.225e-01,1.292e+00
4.275e-01,1.324e+00
4.325e-01,1.357e+00
4.375e-01,1.390e+00
4.425e-01,1.423e+00
4.475e-01,1.455e+00
4.525e-01,1.487e+00
4.575e-01,1.519e+00
4.625e-01,1.551e+00
4.675e-01,1.583e+00
4.725e-01,1.614e+00
4.775e-01,1.644e+00
4.825e-01,1.675e+00
4.875e-01,1.705e+00
4.925e-01,1.734e+00
4.975e-01,1.763e+00
5.025e-01,1.791e+00
5.075e-01,1.819e+00
5.125e-01,1.846e+00
5.175e-01,1.873e+00
5.225e-01,1.899e+00
5.275e-01,1.924e+00
5.325e-01,1.948e+00
5.375e-01,1.972e+00
5.425e-01,1.995e+00
5.475e-01,2.016e+00
5.525e-01,2.037e+00
5.575e-01,2.057e+00
5.625e-01,2.076e+00
5.675e-01,2.095e+00
5.725e-01,2.112e+00
5.775e-01,2.128e+00
5.825e-01,2.142e+00
5.875e-01,2.156e+00
5.925e-01,2.169e+00
5.975e-01,2.180e+00
6.025e-01,2.190e+00
6.075e-01,2.199e+00
6.125e-01,2.207e+00
6.175e-01,2.214e+00
6.225e-01,2.219e+00
6.275e-01,2.223e+00
6.325e-01,2.225e+00
6.375e-01,2.226e+00
6.425e-01,2.226e+00
6.475e-01,2.225e+00
6.525e-01,2.222e+00
6.575e-01,2.217e+00
6.625e-01,2.211e+00
6.675e-01,2.204e+00
6.725e-01,2.195e+00
6.775e-01,2.185e+00
6.825e-01,2.173e+00
6.875e-01,2.160e+00
6.925e-01,2.145e+00
6.975e-01,2.129e+00
7.025e-01,2.112e+00
7.075e-01,2.093e+00
7.125e-01,2.072e+00
7.175e-01,2.050e+00
7.225e-01,2.027e+00
7.275e-01,2.002e+00
7.325e-01,1.976e+00
7.375e-01,1.948e+00
7.425e-01,1.919e+00
7.475e-01,1.889e+00
7.525e-01,1.857e+00
7.575e-01,1.824e+00
7.625e-01,1.789e+00
7.675e-01,1.754e+00
7.725e-01,1.717e+00
7.775e-01,1.679e+00
7.825e-01,1.640e+00
7.875e-01,1.600e+00
7.925e-01,1.559e+00
7.975e-01,1.517e+00
8.025e-01,1.474e+00
8.075e-01,1.430e+00
8.125e-01,1.385e+00
8.175e-01,1.339e+00
8.225e-01,1.293e+00
8.275e-01,1.246e+00
8.325e-01,1.199e+00
8.375e-01,1.151e+00
8.425e-01,1.103e+00
8.475e-01,1.054e+00
8.525e-01,1.005e+00
8.575e-01,9.564e-01
8.625e-01,9.074e-01
8.675e-01,8.585e-01
8.725e-01,8.097e-01
8.775e-01,7.611e-01
8.825e-01,7.130e-01
8.875e-01,6.652e-01
8.925e-01,6.181e-01
8.975e-01,5.717e-01
9.025e-01,5.261e-01
9.075e-01,4.815e-01
9.125e-01,4.379e-01
9.175e-01,3.956e-01
9.225e-01,3.546e-01
9.275e-01,3.150e-01
9.325e-01,2.771e-01
9.375e-01,2.410e-01
9.425e-01,2.068e-01
9.475e-01,1.747e-01
9.525e-01,1.448e-01
9.575e-01,1.173e-01
9.625e-01,9.225e-02
9.675e-01,6.992e-02
9.725e-01,5.043e-02
9.775e-01,3.393e-02
9.825e-01,2.055e-02
9.875e-01,1.044e-02
9.925e-01,3.695e-03
9.975e-01,3.876e-04
