transmittance,probability_density
2.500e-03,5.715e-30
7.500e-03,3.663e-24
1.250e-02,1.830e-21
1.750e-02,1.095e-19
2.250e-02,2.320e-18
2.750e-02,2.655e-17
3.250e-02,2.018e-16
3.750e-02,1.145e-15
4.250e-02,5.225e-15
4.750e-02,2.012e-14
5.250e-02,6.763e-14
5.750e-02,2.035e-13
6.250e-02,5.581e-13
6.750e-02,1.416e-12
7.250e-02,3.358e-12
7.750e-02,7.516e-12
8.250e-02,1.599e-11
8.750e-02,3.252e-11
9.250e-02,6.357e-11
9.750e-02,1.199e-10
1.025e-01,2.190e-10
1.075e-01,3.885e-10
1.125e-01,6.713e-10
1.175e-01,1.132e-09
1.225e-01,1.868e-09
1.275e-01,3.021e-09
1.325e-01,4.793e-09
1.375e-01,7.473e-09
1.425e-01,1.147e-08
1.475e-01,1.733e-08
1.525e-01,2.583e-08
1.575e-01,3.799e-08
1.625e-01,5.519e-08
1.675e-01,7.926e-08
1.725e-01,1.126e-07
1.775e-01,1.583e-07
1.825e-01,2.204e-07
1.875e-01,3.041e-07
1.925e-01,4.160e-07
1.975e-01,5.643e-07
2.025e-01,7.595e-07
2.075e-01,1.015e-06
2.125e-01,1.346e-06
2.175e-01,1.773e-06
2.225e-01,2.321e-06
2.275e-01,3.019e-06
2.325e-01,3.904e-06
2.375e-01,5.019e-06
2.425e-01,6.419e-06
2.475e-01,8.166e-06
2.525e-01,1.034e-05
2.575e-01,1.302e-05
2.625e-01,1.632e-05
2.675e-01,2.038e-05
2.725e-01,2.533e-05
2.775e-01,3.135e-05
2.825e-01,3.864e-05
2.875e-01,4.746e-05
2.925e-01,5.806e-05
2.975e-01,7.077e-05
3.025e-01,8.597e-05
3.075e-01,1.041e-04
3.125e-01,1.256e-04
3.175e-01,1.511e-04
3.225e-01,1.811e-04
3.275e-01,2.166e-04
3.325e-01,2.582e-04
3.375e-01,3.069e-04
3.425e-01,3.638e-04
3.475e-01,4.302e-04
3.525e-01,5.073e-04
3.575e-01,5.967e-04
3.625e-01,7.002e-04
3.675e-01,8.197e-04
3.725e-01,9.573e-04
3.775e-01,1.115e-03
3.825e-01,1.297e-03
3.875e-01,1.505e-03
3.925e-01,1.742e-03
3.975e-01,2.013e-03
4.025e-01,2.321e-03
4.075e-01,2.671e-03
4.125e-01,3.067e-03
4.175e-01,3.516e-03
4.225e-01,4.024e-03
4.275e-01,4.596e-03
4.325e-01,5.241e-03
4.375e-01,5.966e-03
4.425e-01,6.780e-03
4.475e-01,7.692e-03
4.525e-01,8.712e-03
4.575e-01,9.853e-03
4.625e-01,1.113e-02
4.675e-01,1.254e-02
4.725e-01,1.412e-02
4.775e-01,1.587e-02
4.825e-01,1.782e-02
4.875e-01,1.997e-02
4.925e-01,2.235e-02
4.975e-01,2.498e-02
5.025e-01,2.789e-02
5.075e-01,3.109e-02
5.125e-01,3.461e-02
5.175e-01,3.849e-02
5.225e-01,4.274e-02
5.275e-01,4.741e-02
5.325e-01,5.252e-02
5.375e-01,5.810e-02
5.425e-01,6.421e-02
5.475e-01,7.088e-02
5.525e-01,7.815e-02
5.575e-01,8.606e-02
5.625e-01,9.467e-02
5.675e-01,1.040e-01
5.725e-01,1.142e-01
5.775e-01,1.252e-01
5.825e-01,1.371e-01
5.875e-01,1.500e-01
5.925e-01,1.639e-01
5.975e-01,1.790e-01
6.025e-01,1.952e-01
6.075e-01,2.127e-01
6.125e-01,2.315e-01
6.175e-01,2.517e-01
6.225e-01,2.734e-01
6.275e-01,2.967e-01
6.325e-01,3.216e-01
6.375e-01,3.483e-01
6.425e-01,3.769e-01
6.475e-01,4.074e-01
6.525e-01,4.399e-01
6.575e-01,4.746e-01
6.625e-01,5.116e-01
6.675e-01,5.508e-01
6.725e-01,5.926e-01
6.775e-01,6.369e-01
6.825e-01,6.838e-01
6.875e-01,7.336e-01
6.925e-01,7.862e-01
6.975e-01,8.418e-01
7.025e-01,9.004e-01
7.075e-01,9.622e-01
7.125e-01,1.027e+00
7.175e-01,1.096e+00
7.225e-01,1.168e+00
7.275e-01,1.243e+00
7.325e-01,1.322e+00
7.375e-01,1.405e+00
7.425e-01,1.491e+00
7.475e-01,1.581e+00
7.525e-01,1.675e+00
7.575e-01,1.773e+00
7.625e-01,1.874e+00
7.675e-01,1.979e+00
7.725e-01,2.088e+00
7.775e-01,2.200e+00
7.825e-01,2.316e+00
7.875e-01,2.435e+00
7.925e-01,2.557e+00
7.975e-01,2.683e+00
8.025e-01,2.811e+00
8.075e-01,2.942e+00
8.125e-01,3.075e+00
8.175e-01,3.209e+00
8.225e-01,3.346e+00
8.275e-01,3.483e+00
8.325e-01,3.620e+00
8.375e-01,3.758e+00
8.425e-01,3.894e+00
8.475e-01,4.030e+00
8.525e-01,4.162e+00
8.575e-01,4.292e+00
8.625e-01,4.417e+00
8.675e-01,4.537e+00
8.725e-01,4.650e+00
8.775e-01,4.756e+00
8.825e-01,4.853e+00
8.875e-01,4.939e+00
8.925e-01,5.014e+00
8.975e-01,5.074e+00
9.025e-01,5.119e+00
9.075e-01,5.146e+00
9.125e-01,5.154e+00
9.175e-01,5.140e+00
9.225e-01,5.103e+00
9.275e-01,5.038e+00
9.325e-01,4.945e+00
9.375e-01,4.821e+00
9.425e-01,4.663e+00
9.475e-01,4.469e+00
9.525e-01,4.235e+00
9.575e-01,3.960e+00
9.625e-01,3.642e+00
9.675e-01,3.278e+00
9.725e-01,2.867e+00
9.775e-01,2.410e+00
9.825e-01,1.908e+00
9.875e-01,1.366e+00
9.925e-01,7.966e-01
9.975e-01,2.325e-01
