transmittance,probability_density
2.500e-03,1.730e-27
7.500e-03,3.781e-22
1.250e-02,1.146e-19
1.750e-02,4.927e-18
2.250e-02,8.166e-17
2.750e-02,7.677e-16
3.250e-02,4.953e-15
3.750e-02,2.444e-14
4.250e-02,9.863e-14
4.750e-02,3.406e-13
5.250e-02,1.038e-12
5.750e-02,2.856e-12
6.250e-02,7.220e-12
6.750e-02,1.698e-11
7.250e-02,3.756e-11
7.750e-02,7.876e-11
8.250e-02,1.576e-10
8.750e-02,3.026e-10
9.250e-02,5.601e-10
9.750e-02,1.003e-09
1.025e-01,1.745e-09
1.075e-01,2.955e-09
1.125e-01,4.883e-09
1.175e-01,7.893e-09
1.225e-01,1.250e-08
1.275e-01,1.943e-08
1.325e-01,2.969e-08
1.375e-01,4.465e-08
1.425e-01,6.615e-08
1.475e-01,9.666e-08
1.525e-01,1.394e-07
1.575e-01,1.987e-07
1.625e-01,2.800e-07
1.675e-01,3.903e-07
1.725e-01,5.387e-07
1.775e-01,7.365e-07
1.825e-01,9.980e-07
1.875e-01,1.341e-06
1.925e-01,1.787e-06
1.975e-01,2.365e-06
2.025e-01,3.105e-06
2.075e-01,4.050e-06
2.125e-01,5.249e-06
2.175e-01,6.759e-06
2.225e-01,8.652e-06
2.275e-01,1.101e-05
2.325e-01,1.394e-05
2.375e-01,1.755e-05
2.425e-01,2.199e-05
2.475e-01,2.743e-05
2.525e-01,3.404e-05
2.575e-01,4.206e-05
2.625e-01,5.176e-05
2.675e-01,6.342e-05
2.725e-01,7.741e-05
2.775e-01,9.412e-05
2.825e-01,1.140e-04
2.875e-01,1.376e-04
2.925e-01,1.655e-04
2.975e-01,1.985e-04
3.025e-01,2.372e-04
3.075e-01,2.826e-04
3.125e-01,3.356e-04
3.175e-01,3.975e-04
3.225e-01,4.694e-04
3.275e-01,5.527e-04
3.325e-01,6.492e-04
3.375e-01,7.605e-04
3.425e-01,8.886e-04
3.475e-01,1.036e-03
3.525e-01,1.205e-03
3.575e-01,1.397e-03
3.625e-01,1.618e-03
3.675e-01,1.868e-03
3.725e-01,2.153e-03
3.775e-01,2.477e-03
3.825e-01,2.842e-03
3.875e-01,3.256e-03
3.925e-01,3.722e-03
3.975e-01,4.248e-03
4.025e-01,4.838e-03
4.075e-01,5.500e-03
4.125e-01,6.242e-03
4.175e-01,7.072e-03
4.225e-01,7.999e-03
4.275e-01,9.032e-03
4.325e-01,1.018e-02
4.375e-01,1.146e-02
4.425e-01,1.288e-02
4.475e-01,1.445e-02
4.525e-01,1.619e-02
4.575e-01,1.811e-02
4.625e-01,2.024e-02
4.675e-01,2.258e-02
4.725e-01,2.515e-02
4.775e-01,2.798e-02
4.825e-01,3.109e-02
4.875e-01,3.449e-02
4.925e-01,3.822e-02
4.975e-01,4.230e-02
5.025e-01,4.676e-02
5.075e-01,5.162e-02
5.125e-01,5.693e-02
5.175e-01,6.270e-02
5.225e-01,6.897e-02
5.275e-01,7.578e-02
5.325e-01,8.318e-02
5.375e-01,9.119e-02
5.425e-01,9.986e-02
5.475e-01,1.092e-01
5.525e-01,1.194e-01
5.575e-01,1.303e-01
5.625e-01,1.421e-01
5.675e-01,1.548e-01
5.725e-01,1.684e-01
5.775e-01,1.831e-01
5.825e-01,1.988e-01
5.875e-01,2.157e-01
5.925e-01,2.338e-01
5.975e-01,2.531e-01
6.025e-01,2.738e-01
6.075e-01,2.959e-01
6.125e-01,3.195e-01
6.175e-01,3.446e-01
6.225e-01,3.714e-01
6.275e-01,3.999e-01
6.325e-01,4.301e-01
6.375e-01,4.622e-01
6.425e-01,4.963e-01
6.475e-01,5.324e-01
6.525e-01,5.706e-01
6.575e-01,6.110e-01
6.625e-01,6.536e-01
6.675e-01,6.986e-01
6.725e-01,7.460e-01
6.775e-01,7.960e-01
6.825e-01,8.485e-01
6.875e-01,9.037e-01
6.925e-01,9.616e-01
6.975e-01,1.022e+00
7.025e-01,1.086e+00
7.075e-01,1.152e+00
7.125e-01,1.222e+00
7.175e-01,1.294e+00
7.225e-01,1.370e+00
7.275e-01,1.448e+00
7.325e-01,1.530e+00
7.375e-01,1.615e+00
7.425e-01,1.703e+00
7.475e-01,1.794e+00
7.525e-01,1.887e+00
7.575e-01,1.984e+00
7.625e-01,2.084e+00
7.675e-01,2.187e+00
7.725e-01,2.292e+00
7.775e-01,2.400e+00
7.825e-01,2.511e+00
7.875e-01,2.623e+00
7.925e-01,2.738e+00
7.975e-01,2.855e+00
8.025e-01,2.972e+00
8.075e-01,3.092e+00
8.125e-01,3.212e+00
8.175e-01,3.332e+00
8.225e-01,3.453e+00
8.275e-01,3.573e+00
8.325e-01,3.692e+00
8.375e-01,3.809e+00
8.425e-01,3.924e+00
8.475e-01,4.036e+00
8.525e-01,4.145e+00
8.575e-01,4.249e+00
8.625e-01,4.348e+00
8.675e-01,4.440e+00
8.725e-01,4.525e+00
8.775e-01,4.602e+00
8.825e-01,4.669e+00
8.875e-01,4.725e+00
8.925e-01,4.770e+00
8.975e-01,4.800e+00
9.025e-01,4.816e+00
9.075e-01,4.815e+00
9.125e-01,4.795e+00
9.175e-01,4.756e+00
9.225e-01,4.695e+00
9.275e-01,4.611e+00
9.325e-01,4.501e+00
9.375e-01,4.364e+00
9.425e-01,4.198e+00
9.475e-01,4.002e+00
9.525e-01,3.772e+00
9.575e-01,3.508e+00
9.625e-01,3.208e+00
9.675e-01,2.872e+00
9.725e-01,2.499e+00
9.775e-01,2.089e+00
9.825e-01,1.644e+00
9.875e-01,1.170e+00
9.925e-01,6.780e-01
9.975e-01,1.964e-01
