transmittance,probability_density
2.500e-03,2.811e-39
7.500e-03,1.023e-31
1.250e-02,3.344e-28
1.750e-02,6.889e-26
2.250e-02,3.679e-24
2.750e-02,8.804e-23
3.250e-02,1.236e-21
3.750e-02,1.187e-20
4.250e-02,8.582e-20
4.750e-02,4.973e-19
5.250e-02,2.415e-18
5.750e-02,1.015e-17
6.250e-02,3.782e-17
6.750e-02,1.273e-16
7.250e-02,3.926e-16
7.750e-02,1.123e-15
8.250e-02,3.005e-15
8.750e-02,7.587e-15
9.250e-02,1.819e-14
9.750e-02,4.162e-14
1.025e-01,9.135e-14
1.075e-01,1.931e-13
1.125e-01,3.942e-13
1.175e-01,7.801e-13
1.225e-01,1.500e-12
1.275e-01,2.809e-12
1.325e-01,5.132e-12
1.375e-01,9.168e-12
1.425e-01,1.604e-11
1.475e-01,2.751e-11
1.525e-01,4.634e-11
1.575e-01,7.672e-11
1.625e-01,1.250e-10
1.675e-01,2.007e-10
1.725e-01,3.176e-10
1.775e-01,4.959e-10
1.825e-01,7.646e-10
1.875e-01,1.165e-09
1.925e-01,1.755e-09
1.975e-01,2.615e-09
2.025e-01,3.858e-09
2.075e-01,5.636e-09
2.125e-01,8.158e-09
2.175e-01,1.170e-08
2.225e-01,1.665e-08
2.275e-01,2.350e-08
2.325e-01,3.291e-08
2.375e-01,4.575e-08
2.425e-01,6.315e-08
2.475e-01,8.657e-08
2.525e-01,1.179e-07
2.575e-01,1.596e-07
2.625e-01,2.147e-07
2.675e-01,2.872e-07
2.725e-01,3.821e-07
2.775e-01,5.055e-07
2.825e-01,6.653e-07
2.875e-01,8.712e-07
2.925e-01,1.135e-06
2.975e-01,1.473e-06
3.025e-01,1.901e-06
3.075e-01,2.444e-06
3.125e-01,3.129e-06
3.175e-01,3.989e-06
3.225e-01,5.065e-06
3.275e-01,6.406e-06
3.325e-01,8.072e-06
3.375e-01,1.013e-05
3.425e-01,1.268e-05
3.475e-01,1.581e-05
3.525e-01,1.964e-05
3.575e-01,2.432e-05
3.625e-01,3.003e-05
3.675e-01,3.696e-05
3.725e-01,4.535e-05
3.775e-01,5.549e-05
3.825e-01,6.769e-05
3.875e-01,8.235e-05
3.925e-01,9.991e-05
3.975e-01,1.209e-04
4.025e-01,1.459e-04
4.075e-01,1.757e-04
4.125e-01,2.110e-04
4.175e-01,2.527e-04
4.225e-01,3.021e-04
4.275e-01,3.602e-04
4.325e-01,4.285e-04
4.375e-01,5.087e-04
4.425e-01,6.025e-04
4.475e-01,7.122e-04
4.525e-01,8.401e-04
4.575e-01,9.889e-04
4.625e-01,1.162e-03
4.675e-01,1.362e-03
4.725e-01,1.594e-03
4.775e-01,1.862e-03
4.825e-01,2.171e-03
4.875e-01,2.527e-03
4.925e-01,2.935e-03
4.975e-01,3.404e-03
5.025e-01,3.941e-03
5.075e-01,4.554e-03
5.125e-01,5.255e-03
5.175e-01,6.053e-03
5.225e-01,6.961e-03
5.275e-01,7.993e-03
5.325e-01,9.164e-03
5.375e-01,1.049e-02
5.425e-01,1.199e-02
5.475e-01,1.368e-02
5.525e-01,1.559e-02
5.575e-01,1.774e-02
5.625e-01,2.016e-02
5.675e-01,2.288e-02
5.725e-01,2.593e-02
5.775e-01,2.934e-02
5.825e-01,3.315e-02
5.875e-01,3.741e-02
5.925e-01,4.217e-02
5.975e-01,4.746e-02
6.025e-01,5.335e-02
6.075e-01,5.989e-02
6.125e-01,6.715e-02
6.175e-01,7.520e-02
6.225e-01,8.410e-02
6.275e-01,9.395e-02
6.325e-01,1.048e-01
6.375e-01,1.168e-01
6.425e-01,1.300e-01
6.475e-01,1.445e-01
6.525e-01,1.604e-01
6.575e-01,1.779e-01
6.625e-01,1.971e-01
6.675e-01,2.181e-01
6.725e-01,2.410e-01
6.775e-01,2.660e-01
6.825e-01,2.933e-01
6.875e-01,3.230e-01
6.925e-01,3.553e-01
6.975e-01,3.904e-01
7.025e-01,4.285e-01
7.075e-01,4.698e-01
7.125e-01,5.144e-01
7.175e-01,5.626e-01
7.225e-01,6.147e-01
7.275e-01,6.708e-01
7.325e-01,7.311e-01
7.375e-01,7.960e-01
7.425e-01,8.656e-01
7.475e-01,9.402e-01
7.525e-01,1.020e+00
7.575e-01,1.105e+00
7.625e-01,1.196e+00
7.675e-01,1.293e+00
7.725e-01,1.396e+00
7.775e-01,1.505e+00
7.825e-01,1.621e+00
7.875e-01,1.744e+00
7.925e-01,1.873e+00
7.975e-01,2.009e+00
8.025e-01,2.152e+00
8.075e-01,2.302e+00
8.125e-01,2.459e+00
8.175e-01,2.623e+00
8.225e-01,2.794e+00
8.275e-01,2.971e+00
8.325e-01,3.154e+00
8.375e-01,3.343e+00
8.425e-01,3.538e+00
8.475e-01,3.737e+00
8.525e-01,3.940e+00
8.575e-01,4.146e+00
8.625e-01,4.354e+00
8.675e-01,4.562e+00
8.725e-01,4.770e+00
8.775e-01,4.976e+00
8.825e-01,5.177e+00
8.875e-01,5.371e+00
8.925e-01,5.557e+00
8.975e-01,5.732e+00
9.025e-01,5.892e+00
9.075e-01,6.034e+00
9.125e-01,6.155e+00
9.175e-01,6.250e+00
9.225e-01,6.316e+00
9.275e-01,6.347e+00
9.325e-01,6.339e+00
9.375e-01,6.286e+00
9.425e-01,6.182e+00
9.475e-01,6.022e+00
9.525e-01,5.799e+00
9.575e-01,5.507e+00
9.625e-01,5.140e+00
9.675e-01,4.692e+00
9.725e-01,4.160e+00
9.775e-01,3.539e+00
9.825e-01,2.830e+00
9.875e-01,2.041e+00
9.925e-01,1.191e+00
9.975e-01,3.412e-01
