transmittance,probability_density
2.500e-03,8.777e-36
7.500e-03,7.011e-29
1.250e-02,1.132e-25
1.750e-02,1.466e-23
2.250e-02,5.533e-22
2.750e-02,1.004e-20
3.250e-02,1.119e-19
3.750e-02,8.823e-19
4.250e-02,5.365e-18
4.750e-02,2.667e-17
5.250e-02,1.128e-16
5.750e-02,4.181e-16
6.250e-02,1.389e-15
6.750e-02,4.203e-15
7.250e-02,1.175e-14
7.750e-02,3.064e-14
8.250e-02,7.524e-14
8.750e-02,1.752e-13
9.250e-02,3.889e-13
9.750e-02,8.278e-13
1.025e-01,1.696e-12
1.075e-01,3.356e-12
1.125e-01,6.436e-12
1.175e-01,1.200e-11
1.225e-01,2.178e-11
1.275e-01,3.859e-11
1.325e-01,6.688e-11
1.375e-01,1.135e-10
1.425e-01,1.891e-10
1.475e-01,3.093e-10
1.525e-01,4.975e-10
1.575e-01,7.880e-10
1.625e-01,1.230e-09
1.675e-01,1.893e-09
1.725e-01,2.877e-09
1.775e-01,4.320e-09
1.825e-01,6.411e-09
1.875e-01,9.411e-09
1.925e-01,1.367e-08
1.975e-01,1.967e-08
2.025e-01,2.803e-08
2.075e-01,3.960e-08
2.125e-01,5.548e-08
2.175e-01,7.709e-08
2.225e-01,1.063e-07
2.275e-01,1.455e-07
2.325e-01,1.978e-07
2.375e-01,2.670e-07
2.425e-01,3.581e-07
2.475e-01,4.774e-07
2.525e-01,6.326e-07
2.575e-01,8.335e-07
2.625e-01,1.092e-06
2.675e-01,1.424e-06
2.725e-01,1.846e-06
2.775e-01,2.382e-06
2.825e-01,3.059e-06
2.875e-01,3.910e-06
2.925e-01,4.977e-06
2.975e-01,6.307e-06
3.025e-01,7.959e-06
3.075e-01,1.000e-05
3.125e-01,1.253e-05
3.175e-01,1.562e-05
3.225e-01,1.942e-05
3.275e-01,2.405e-05
3.325e-01,2.968e-05
3.375e-01,3.651e-05
3.425e-01,4.476e-05
3.475e-01,5.470e-05
3.525e-01,6.665e-05
3.575e-01,8.097e-05
3.625e-01,9.808e-05
3.675e-01,1.185e-04
3.725e-01,1.427e-04
3.775e-01,1.714e-04
3.825e-01,2.054e-04
3.875e-01,2.455e-04
3.925e-01,2.927e-04
3.975e-01,3.481e-04
4.025e-01,4.130e-04
4.075e-01,4.889e-04
4.125e-01,5.774e-04
4.175e-01,6.804e-04
4.225e-01,8.000e-04
4.275e-01,9.388e-04
4.325e-01,1.099e-03
4.375e-01,1.285e-03
4.425e-01,1.498e-03
4.475e-01,1.744e-03
4.525e-01,2.026e-03
4.575e-01,2.349e-03
4.625e-01,2.720e-03
4.675e-01,3.142e-03
4.725e-01,3.624e-03
4.775e-01,4.173e-03
4.825e-01,4.797e-03
4.875e-01,5.505e-03
4.925e-01,6.307e-03
4.975e-01,7.214e-03
5.025e-01,8.238e-03
5.075e-01,9.394e-03
5.125e-01,1.069e-02
5.175e-01,1.216e-02
5.225e-01,1.380e-02
5.275e-01,1.564e-02
5.325e-01,1.771e-02
5.375e-01,2.001e-02
5.425e-01,2.259e-02
5.475e-01,2.546e-02
5.525e-01,2.866e-02
5.575e-01,3.221e-02
5.625e-01,3.616e-02
5.675e-01,4.054e-02
5.725e-01,4.540e-02
5.775e-01,5.077e-02
5.825e-01,5.671e-02
5.875e-01,6.326e-02
5.925e-01,7.048e-02
5.975e-01,7.843e-02
6.025e-01,8.718e-02
6.075e-01,9.678e-02
6.125e-01,1.073e-01
6.175e-01,1.189e-01
6.225e-01,1.315e-01
6.275e-01,1.453e-01
6.325e-01,1.604e-01
6.375e-01,1.769e-01
6.425e-01,1.948e-01
6.475e-01,2.143e-01
6.525e-01,2.355e-01
6.575e-01,2.585e-01
6.625e-01,2.834e-01
6.675e-01,3.104e-01
6.725e-01,3.396e-01
6.775e-01,3.712e-01
6.825e-01,4.052e-01
6.875e-01,4.420e-01
6.925e-01,4.815e-01
6.975e-01,5.240e-01
7.025e-01,5.696e-01
7.075e-01,6.186e-01
7.125e-01,6.710e-01
7.175e-01,7.271e-01
7.225e-01,7.870e-01
7.275e-01,8.510e-01
7.325e-01,9.192e-01
7.375e-01,9.917e-01
7.425e-01,1.069e+00
7.475e-01,1.151e+00
7.525e-01,1.237e+00
7.575e-01,1.329e+00
7.625e-01,1.426e+00
7.675e-01,1.528e+00
7.725e-01,1.636e+00
7.775e-01,1.749e+00
7.825e-01,1.868e+00
7.875e-01,1.992e+00
7.925e-01,2.122e+00
7.975e-01,2.258e+00
8.025e-01,2.399e+00
8.075e-01,2.546e+00
8.125e-01,2.698e+00
8.175e-01,2.855e+00
8.225e-01,3.016e+00
8.275e-01,3.183e+00
8.325e-01,3.353e+00
8.375e-01,3.527e+00
8.425e-01,3.704e+00
8.475e-01,3.882e+00
8.525e-01,4.063e+00
8.575e-01,4.244e+00
8.625e-01,4.424e+00
8.675e-01,4.602e+00
8.725e-01,4.777e+00
8.775e-01,4.947e+00
8.825e-01,5.111e+00
8.875e-01,5.266e+00
8.925e-01,5.411e+00
8.975e-01,5.543e+00
9.025e-01,5.660e+00
9.075e-01,5.758e+00
9.125e-01,5.835e+00
9.175e-01,5.888e+00
9.225e-01,5.912e+00
9.275e-01,5.905e+00
9.325e-01,5.861e+00
9.375e-01,5.778e+00
9.425e-01,5.650e+00
9.475e-01,5.473e+00
9.525e-01,5.242e+00
9.575e-01,4.953e+00
9.625e-01,4.601e+00
9.675e-01,4.181e+00
9.725e-01,3.692e+00
9.775e-01,3.131e+00
9.825e-01,2.498e+00
9.875e-01,1.800e+00
9.925e-01,1.054e+00
9.975e-01,3.060e-01
