transmittance,probability_density
1.685e-01,9.270e-30
1.727e-01,2.641e-29
1.769e-01,7.336e-29
1.810e-01,1.989e-28
1.852e-01,5.272e-28
1.894e-01,1.367e-27
1.935e-01,3.470e-27
1.977e-01,8.633e-27
2.019e-01,2.107e-26
2.060e-01,5.048e-26
2.102e-01,1.188e-25
2.144e-01,2.750e-25
2.186e-01,6.259e-25
2.227e-01,1.402e-24
2.269e-01,3.095e-24
2.311e-01,6.731e-24
2.352e-01,1.443e-23
2.394e-01,3.053e-23
2.436e-01,6.372e-23
2.477e-01,1.313e-22
2.519e-01,2.674e-22
2.561e-01,5.380e-22
2.602e-01,1.070e-21
2.644e-01,2.104e-21
2.686e-01,4.094e-21
2.727e-01,7.882e-21
2.769e-01,1.502e-20
2.811e-01,2.835e-20
2.852e-01,5.298e-20
2.894e-01,9.812e-20
2.936e-01,1.801e-19
2.977e-01,3.275e-19
3.019e-01,5.908e-19
3.061e-01,1.057e-18
3.102e-01,1.875e-18
3.144e-01,3.301e-18
3.186e-01,5.766e-18
3.227e-01,9.997e-18
3.269e-01,1.721e-17
3.311e-01,2.941e-17
3.352e-01,4.992e-17
3.394e-01,8.416e-17
3.436e-01,1.410e-16
3.478e-01,2.346e-16
3.519e-01,3.879e-16
3.561e-01,6.374e-16
3.603e-01,1.041e-15
3.644e-01,1.691e-15
3.686e-01,2.731e-15
3.728e-01,4.385e-15
3.769e-01,7.003e-15
3.811e-01,1.112e-14
3.853e-01,1.758e-14
3.894e-01,2.763e-14
3.936e-01,4.321e-14
3.978e-01,6.725e-14
4.019e-01,1.042e-13
4.061e-01,1.606e-13
4.103e-01,2.463e-13
4.144e-01,3.762e-13
4.186e-01,5.721e-13
4.228e-01,8.661e-13
4.269e-01,1.305e-12
4.311e-01,1.960e-12
4.353e-01,2.929e-12
4.394e-01,4.361e-12
4.436e-01,6.466e-12
4.478e-01,9.550e-12
4.519e-01,1.405e-11
4.561e-01,2.059e-11
4.603e-01,3.007e-11
4.644e-01,4.376e-11
4.686e-01,6.343e-11
4.728e-01,9.164e-11
4.770e-01,1.319e-10
4.811e-01,1.893e-10
4.853e-01,2.706e-10
4.895e-01,3.856e-10
4.936e-01,5.478e-10
4.978e-01,7.756e-10
5.020e-01,1.095e-09
5.061e-01,1.540e-09
5.103e-01,2.160e-09
5.145e-01,3.021e-09
5.186e-01,4.213e-09
5.228e-01,5.857e-09
5.270e-01,8.118e-09
5.311e-01,1.122e-08
5.353e-01,1.547e-08
5.395e-01,2.126e-08
5.436e-01,2.914e-08
5.478e-01,3.984e-08
5.520e-01,5.432e-08
5.561e-01,7.387e-08
5.603e-01,1.002e-07
5.645e-01,1.355e-07
5.686e-01,1.829e-07
5.728e-01,2.462e-07
5.770e-01,3.306e-07
5.811e-01,4.428e-07
5.853e-01,5.917e-07
5.895e-01,7.887e-07
5.936e-01,1.049e-06
5.978e-01,1.392e-06
6.020e-01,1.842e-06
6.061e-01,2.433e-06
6.103e-01,3.206e-06
6.145e-01,4.215e-06
6.187e-01,5.530e-06
6.228e-01,7.239e-06
6.270e-01,9.455e-06
6.312e-01,1.232e-05
6.353e-01,1.603e-05
6.395e-01,2.080e-05
6.437e-01,2.694e-05
6.478e-01,3.482e-05
6.520e-01,4.491e-05
6.562e-01,5.780e-05
6.603e-01,7.425e-05
6.645e-01,9.518e-05
6.687e-01,1.218e-04
6.728e-01,1.555e-04
6.770e-01,1.981e-04
6.812e-01,2.520e-04
6.853e-01,3.199e-04
6.895e-01,4.053e-04
6.937e-01,5.125e-04
6.978e-01,6.468e-04
7.020e-01,8.147e-04
7.062e-01,1.024e-03
7.103e-01,1.285e-03
7.145e-01,1.610e-03
7.187e-01,2.013e-03
7.228e-01,2.511e-03
7.270e-01,3.128e-03
7.312e-01,3.888e-03
7.353e-01,4.825e-03
7.395e-01,5.976e-03
7.437e-01,7.387e-03
7.479e-01,9.115e-03
7.520e-01,1.123e-02
7.562e-01,1.380e-02
7.604e-01,1.693e-02
7.645e-01,2.074e-02
7.687e-01,2.535e-02
7.729e-01,3.092e-02
7.770e-01,3.766e-02
7.812e-01,4.577e-02
7.854e-01,5.552e-02
7.895e-01,6.722e-02
7.937e-01,8.122e-02
7.979e-01,9.795e-02
8.020e-01,1.179e-01
8.062e-01,1.416e-01
8.104e-01,1.697e-01
8.145e-01,2.030e-01
8.187e-01,2.423e-01
8.229e-01,2.886e-01
8.270e-01,3.431e-01
8.312e-01,4.068e-01
8.354e-01,4.814e-01
8.395e-01,5.682e-01
8.437e-01,6.692e-01
8.479e-01,7.862e-01
8.520e-01,9.214e-01
8.562e-01,1.077e+00
8.604e-01,1.256e+00
8.645e-01,1.460e+00
8.687e-01,1.692e+00
8.729e-01,1.956e+00
8.771e-01,2.255e+00
8.812e-01,2.590e+00
8.854e-01,2.966e+00
8.896e-01,3.384e+00
8.937e-01,3.846e+00
8.979e-01,4.355e+00
9.021e-01,4.911e+00
9.062e-01,5.513e+00
9.104e-01,6.161e+00
9.146e-01,6.849e+00
9.187e-01,7.573e+00
9.229e-01,8.323e+00
9.271e-01,9.088e+00
9.312e-01,9.853e+00
9.354e-01,1.060e+01
9.396e-01,1.130e+01
9.437e-01,1.192e+01
9.479e-01,1.244e+01
9.521e-01,1.281e+01
9.562e-01,1.299e+01
9.604e-01,1.293e+01
9.646e-01,1.259e+01
9.687e-01,1.193e+01
9.729e-01,1.090e+01
9.771e-01,9.513e+00
9.812e-01,7.773e+00
9.854e-01,5.757e+00
9.896e-01,3.617e+00
9.937e-01,1.623e+00
9.979e-01,2.350e-01
