transmittance,probability_density
1.135e-01,5.927e-24
1.179e-01,1.743e-23
1.224e-01,4.923e-23
1.268e-01,1.339e-22
1.313e-01,3.520e-22
1.357e-01,8.956e-22
1.402e-01,2.210e-21
1.446e-01,5.301e-21
1.490e-01,1.238e-20
1.535e-01,2.819e-20
1.579e-01,6.269e-20
1.624e-01,1.363e-19
1.668e-01,2.902e-19
1.713e-01,6.054e-19
1.757e-01,1.239e-18
1.801e-01,2.491e-18
1.846e-01,4.921e-18
1.890e-01,9.565e-18
1.935e-01,1.830e-17
1.979e-01,3.449e-17
2.024e-01,6.409e-17
2.068e-01,1.175e-16
2.113e-01,2.125e-16
2.157e-01,3.796e-16
2.201e-01,6.699e-16
2.246e-01,1.169e-15
2.290e-01,2.017e-15
2.335e-01,3.442e-15
2.379e-01,5.816e-15
2.424e-01,9.729e-15
2.468e-01,1.612e-14
2.512e-01,2.647e-14
2.557e-01,4.306e-14
2.601e-01,6.947e-14
2.646e-01,1.111e-13
2.690e-01,1.764e-13
2.735e-01,2.778e-13
2.779e-01,4.342e-13
2.824e-01,6.737e-13
2.868e-01,1.038e-12
2.912e-01,1.588e-12
2.957e-01,2.414e-12
3.001e-01,3.646e-12
3.046e-01,5.473e-12
3.090e-01,8.164e-12
3.135e-01,1.211e-11
3.179e-01,1.785e-11
3.223e-01,2.618e-11
3.268e-01,3.817e-11
3.312e-01,5.538e-11
3.357e-01,7.992e-11
3.401e-01,1.148e-10
3.446e-01,1.640e-10
3.490e-01,2.332e-10
3.535e-01,3.301e-10
3.579e-01,4.651e-10
3.623e-01,6.525e-10
3.668e-01,9.114e-10
3.712e-01,1.268e-09
3.757e-01,1.756e-09
3.801e-01,2.422e-09
3.846e-01,3.329e-09
3.890e-01,4.557e-09
3.934e-01,6.214e-09
3.979e-01,8.443e-09
4.023e-01,1.143e-08
4.068e-01,1.542e-08
4.112e-01,2.073e-08
4.157e-01,2.778e-08
4.201e-01,3.709e-08
4.245e-01,4.937e-08
4.290e-01,6.551e-08
4.334e-01,8.665e-08
4.379e-01,1.143e-07
4.423e-01,1.502e-07
4.468e-01,1.969e-07
4.512e-01,2.573e-07
4.557e-01,3.354e-07
4.601e-01,4.359e-07
4.645e-01,5.650e-07
4.690e-01,7.303e-07
4.734e-01,9.416e-07
4.779e-01,1.211e-06
4.823e-01,1.553e-06
4.868e-01,1.987e-06
4.912e-01,2.535e-06
4.956e-01,3.228e-06
5.001e-01,4.100e-06
5.045e-01,5.195e-06
5.090e-01,6.567e-06
5.134e-01,8.283e-06
5.179e-01,1.042e-05
5.223e-01,1.309e-05
5.268e-01,1.640e-05
5.312e-01,2.051e-05
5.356e-01,2.558e-05
5.401e-01,3.185e-05
5.445e-01,3.957e-05
5.490e-01,4.907e-05
5.534e-01,6.073e-05
5.579e-01,7.500e-05
5.623e-01,9.245e-05
5.667e-01,1.137e-04
5.712e-01,1.397e-04
5.756e-01,1.712e-04
5.801e-01,2.094e-04
5.845e-01,2.557e-04
5.890e-01,3.117e-04
5.934e-01,3.793e-04
5.979e-01,4.607e-04
6.023e-01,5.586e-04
6.067e-01,6.761e-04
6.112e-01,8.170e-04
6.156e-01,9.855e-04
6.201e-01,1.187e-03
6.245e-01,1.427e-03
6.290e-01,1.713e-03
6.334e-01,2.052e-03
6.378e-01,2.456e-03
6.423e-01,2.933e-03
6.467e-01,3.498e-03
6.512e-01,4.166e-03
6.556e-01,4.953e-03
6.601e-01,5.879e-03
6.645e-01,6.968e-03
6.689e-01,8.246e-03
6.734e-01,9.743e-03
6.778e-01,1.150e-02
6.823e-01,1.354e-02
6.867e-01,1.593e-02
6.912e-01,1.871e-02
6.956e-01,2.194e-02
7.001e-01,2.570e-02
7.045e-01,3.005e-02
7.089e-01,3.509e-02
7.134e-01,4.091e-02
7.178e-01,4.763e-02
7.223e-01,5.538e-02
7.267e-01,6.428e-02
7.312e-01,7.452e-02
7.356e-01,8.625e-02
7.400e-01,9.969e-02
7.445e-01,1.151e-01
7.489e-01,1.326e-01
7.534e-01,1.526e-01
7.578e-01,1.753e-01
7.623e-01,2.011e-01
7.667e-01,2.304e-01
7.712e-01,2.636e-01
7.756e-01,3.011e-01
7.800e-01,3.434e-01
7.845e-01,3.910e-01
7.889e-01,4.446e-01
7.934e-01,5.047e-01
7.978e-01,5.720e-01
8.023e-01,6.473e-01
8.067e-01,7.312e-01
8.111e-01,8.247e-01
8.156e-01,9.286e-01
8.200e-01,1.044e+00
8.245e-01,1.171e+00
8.289e-01,1.312e+00
8.334e-01,1.467e+00
8.378e-01,1.637e+00
8.423e-01,1.823e+00
8.467e-01,2.026e+00
8.511e-01,2.248e+00
8.556e-01,2.488e+00
8.600e-01,2.748e+00
8.645e-01,3.029e+00
8.689e-01,3.330e+00
8.734e-01,3.652e+00
8.778e-01,3.995e+00
8.822e-01,4.358e+00
8.867e-01,4.741e+00
8.911e-01,5.141e+00
8.956e-01,5.558e+00
9.000e-01,5.988e+00
9.045e-01,6.427e+00
9.089e-01,6.871e+00
9.133e-01,7.315e+00
9.178e-01,7.752e+00
9.222e-01,8.173e+00
9.267e-01,8.569e+00
9.311e-01,8.929e+00
9.356e-01,9.239e+00
9.400e-01,9.486e+00
9.445e-01,9.653e+00
9.489e-01,9.723e+00
9.533e-01,9.675e+00
9.578e-01,9.491e+00
9.622e-01,9.150e+00
9.667e-01,8.633e+00
9.711e-01,7.923e+00
9.756e-01,7.009e+00
9.800e-01,5.892e+00
9.844e-01,4.586e+00
9.889e-01,3.138e+00
9.933e-01,1.650e+00
9.978e-01,3.579e-01
