transmittance,probability_density
1.513e-01,2.288e-28
1.556e-01,6.643e-28
1.598e-01,1.873e-27
1.641e-01,5.139e-27
1.683e-01,1.374e-26
1.726e-01,3.581e-26
1.768e-01,9.120e-26
1.811e-01,2.271e-25
1.853e-01,5.533e-25
1.896e-01,1.321e-24
1.938e-01,3.093e-24
1.981e-01,7.107e-24
2.024e-01,1.604e-23
2.066e-01,3.559e-23
2.109e-01,7.767e-23
2.151e-01,1.668e-22
2.194e-01,3.529e-22
2.236e-01,7.358e-22
2.279e-01,1.513e-21
2.321e-01,3.067e-21
2.364e-01,6.140e-21
2.406e-01,1.214e-20
2.449e-01,2.370e-20
2.492e-01,4.573e-20
2.534e-01,8.725e-20
2.577e-01,1.647e-19
2.619e-01,3.075e-19
2.662e-01,5.682e-19
2.704e-01,1.040e-18
2.747e-01,1.884e-18
2.789e-01,3.383e-18
2.832e-01,6.018e-18
2.874e-01,1.061e-17
2.917e-01,1.856e-17
2.959e-01,3.218e-17
3.002e-01,5.534e-17
3.045e-01,9.445e-17
3.087e-01,1.600e-16
3.130e-01,2.689e-16
3.172e-01,4.488e-16
3.215e-01,7.438e-16
3.257e-01,1.224e-15
3.300e-01,2.001e-15
3.342e-01,3.251e-15
3.385e-01,5.247e-15
3.427e-01,8.417e-15
3.470e-01,1.342e-14
3.513e-01,2.127e-14
3.555e-01,3.352e-14
3.598e-01,5.253e-14
3.640e-01,8.186e-14
3.683e-01,1.269e-13
3.725e-01,1.957e-13
3.768e-01,3.002e-13
3.810e-01,4.582e-13
3.853e-01,6.960e-13
3.895e-01,1.052e-12
3.938e-01,1.583e-12
3.980e-01,2.370e-12
4.023e-01,3.534e-12
4.066e-01,5.245e-12
4.108e-01,7.751e-12
4.151e-01,1.141e-11
4.193e-01,1.672e-11
4.236e-01,2.440e-11
4.278e-01,3.546e-11
4.321e-01,5.135e-11
4.363e-01,7.406e-11
4.406e-01,1.064e-10
4.448e-01,1.523e-10
4.491e-01,2.173e-10
4.533e-01,3.088e-10
4.576e-01,4.373e-10
4.619e-01,6.172e-10
4.661e-01,8.682e-10
4.704e-01,1.217e-09
4.746e-01,1.701e-09
4.789e-01,2.368e-09
4.831e-01,3.288e-09
4.874e-01,4.551e-09
4.916e-01,6.279e-09
4.959e-01,8.637e-09
5.001e-01,1.185e-08
5.044e-01,1.620e-08
5.087e-01,2.209e-08
5.129e-01,3.003e-08
5.172e-01,4.071e-08
5.214e-01,5.505e-08
5.257e-01,7.423e-08
5.299e-01,9.982e-08
5.342e-01,1.339e-07
5.384e-01,1.791e-07
5.427e-01,2.390e-07
5.469e-01,3.181e-07
5.512e-01,4.223e-07
5.554e-01,5.592e-07
5.597e-01,7.388e-07
5.640e-01,9.737e-07
5.682e-01,1.280e-06
5.725e-01,1.679e-06
5.767e-01,2.198e-06
5.810e-01,2.869e-06
5.852e-01,3.738e-06
5.895e-01,4.858e-06
5.937e-01,6.301e-06
5.980e-01,8.154e-06
6.022e-01,1.053e-05
6.065e-01,1.357e-05
6.108e-01,1.745e-05
6.150e-01,2.239e-05
6.193e-01,2.866e-05
6.235e-01,3.663e-05
6.278e-01,4.671e-05
6.320e-01,5.945e-05
6.363e-01,7.551e-05
6.405e-01,9.572e-05
6.448e-01,1.211e-04
6.490e-01,1.529e-04
6.533e-01,1.927e-04
6.575e-01,2.424e-04
6.618e-01,3.043e-04
6.661e-01,3.813e-04
6.703e-01,4.769e-04
6.746e-01,5.954e-04
6.788e-01,7.420e-04
6.831e-01,9.229e-04
6.873e-01,1.146e-03
6.916e-01,1.420e-03
6.958e-01,1.757e-03
7.001e-01,2.169e-03
7.043e-01,2.674e-03
7.086e-01,3.290e-03
7.128e-01,4.041e-03
7.171e-01,4.954e-03
7.214e-01,6.063e-03
7.256e-01,7.407e-03
7.299e-01,9.034e-03
7.341e-01,1.100e-02
7.384e-01,1.337e-02
7.426e-01,1.621e-02
7.469e-01,1.964e-02
7.511e-01,2.374e-02
7.554e-01,2.864e-02
7.596e-01,3.450e-02
7.639e-01,4.149e-02
7.682e-01,4.980e-02
7.724e-01,5.967e-02
7.767e-01,7.136e-02
7.809e-01,8.519e-02
7.852e-01,1.015e-01
7.894e-01,1.207e-01
7.937e-01,1.434e-01
7.979e-01,1.699e-01
8.022e-01,2.009e-01
8.064e-01,2.372e-01
8.107e-01,2.794e-01
8.149e-01,3.286e-01
8.192e-01,3.856e-01
8.235e-01,4.516e-01
8.277e-01,5.278e-01
8.320e-01,6.155e-01
8.362e-01,7.162e-01
8.405e-01,8.316e-01
8.447e-01,9.634e-01
8.490e-01,1.113e+00
8.532e-01,1.284e+00
8.575e-01,1.476e+00
8.617e-01,1.694e+00
8.660e-01,1.938e+00
8.703e-01,2.211e+00
8.745e-01,2.516e+00
8.788e-01,2.854e+00
8.830e-01,3.228e+00
8.873e-01,3.638e+00
8.915e-01,4.086e+00
8.958e-01,4.573e+00
9.000e-01,5.098e+00
9.043e-01,5.660e+00
9.085e-01,6.257e+00
9.128e-01,6.883e+00
9.170e-01,7.533e+00
9.213e-01,8.199e+00
9.256e-01,8.870e+00
9.298e-01,9.531e+00
9.341e-01,1.017e+01
9.383e-01,1.075e+01
9.426e-01,1.127e+01
9.468e-01,1.168e+01
9.511e-01,1.197e+01
9.553e-01,1.208e+01
9.596e-01,1.198e+01
9.638e-01,1.165e+01
9.681e-01,1.103e+01
9.723e-01,1.011e+01
9.766e-01,8.863e+00
9.809e-01,7.311e+00
9.851e-01,5.502e+00
9.894e-01,3.550e+00
9.936e-01,1.673e+00
9.979e-01,2.736e-01
