transmittance,probability_density
2.500e-03,1.891e-47
7.500e-03,2.390e-38
1.250e-02,4.065e-34
1.750e-02,2.481e-31
2.250e-02,2.982e-29
2.750e-02,1.364e-27
3.250e-02,3.283e-26
3.750e-02,5.004e-25
4.250e-02,5.417e-24
4.750e-02,4.494e-23
5.250e-02,3.014e-22
5.750e-02,1.699e-21
6.250e-02,8.282e-21
6.750e-02,3.573e-20
7.250e-02,1.387e-19
7.750e-02,4.919e-19
8.250e-02,1.611e-18
8.750e-02,4.916e-18
9.250e-02,1.410e-17
9.750e-02,3.822e-17
1.025e-01,9.857e-17
1.075e-01,2.429e-16
1.125e-01,5.741e-16
1.175e-01,1.307e-15
1.225e-01,2.874e-15
1.275e-01,6.121e-15
1.325e-01,1.266e-14
1.375e-01,2.548e-14
1.425e-01,5.000e-14
1.475e-01,9.585e-14
1.525e-01,1.797e-13
1.575e-01,3.301e-13
1.625e-01,5.948e-13
1.675e-01,1.053e-12
1.725e-01,1.831e-12
1.775e-01,3.134e-12
1.825e-01,5.284e-12
1.875e-01,8.781e-12
1.925e-01,1.440e-11
1.975e-01,2.330e-11
2.025e-01,3.724e-11
2.075e-01,5.885e-11
2.125e-01,9.195e-11
2.175e-01,1.422e-10
2.225e-01,2.176e-10
2.275e-01,3.297e-10
2.325e-01,4.952e-10
2.375e-01,7.370e-10
2.425e-01,1.088e-09
2.475e-01,1.592e-09
2.525e-01,2.312e-09
2.575e-01,3.333e-09
2.625e-01,4.769e-09
2.675e-01,6.778e-09
2.725e-01,9.567e-09
2.775e-01,1.342e-08
2.825e-01,1.870e-08
2.875e-01,2.590e-08
2.925e-01,3.567e-08
2.975e-01,4.885e-08
3.025e-01,6.653e-08
3.075e-01,9.014e-08
3.125e-01,1.215e-07
3.175e-01,1.630e-07
3.225e-01,2.175e-07
3.275e-01,2.890e-07
3.325e-01,3.823e-07
3.375e-01,5.034e-07
3.425e-01,6.601e-07
3.475e-01,8.620e-07
3.525e-01,1.121e-06
3.575e-01,1.452e-06
3.625e-01,1.874e-06
3.675e-01,2.410e-06
3.725e-01,3.088e-06
3.775e-01,3.942e-06
3.825e-01,5.015e-06
3.875e-01,6.360e-06
3.925e-01,8.038e-06
3.975e-01,1.013e-05
4.025e-01,1.272e-05
4.075e-01,1.593e-05
4.125e-01,1.989e-05
4.175e-01,2.475e-05
4.225e-01,3.073e-05
4.275e-01,3.804e-05
4.325e-01,4.696e-05
4.375e-01,5.783e-05
4.425e-01,7.102e-05
4.475e-01,8.700e-05
4.525e-01,1.063e-04
4.575e-01,1.296e-04
4.625e-01,1.576e-04
4.675e-01,1.912e-04
4.725e-01,2.314e-04
4.775e-01,2.795e-04
4.825e-01,3.368e-04
4.875e-01,4.050e-04
4.925e-01,4.860e-04
4.975e-01,5.819e-04
5.025e-01,6.954e-04
5.075e-01,8.293e-04
5.125e-01,9.870e-04
5.175e-01,1.172e-03
5.225e-01,1.390e-03
5.275e-01,1.645e-03
5.325e-01,1.943e-03
5.375e-01,2.290e-03
5.425e-01,2.696e-03
5.475e-01,3.167e-03
5.525e-01,3.714e-03
5.575e-01,4.348e-03
5.625e-01,5.081e-03
5.675e-01,5.929e-03
5.725e-01,6.906e-03
5.775e-01,8.031e-03
5.825e-01,9.325e-03
5.875e-01,1.081e-02
5.925e-01,1.251e-02
5.975e-01,1.446e-02
6.025e-01,1.668e-02
6.075e-01,1.922e-02
6.125e-01,2.211e-02
6.175e-01,2.540e-02
6.225e-01,2.913e-02
6.275e-01,3.337e-02
6.325e-01,3.816e-02
6.375e-01,4.358e-02
6.425e-01,4.970e-02
6.475e-01,5.660e-02
6.525e-01,6.437e-02
6.575e-01,7.311e-02
6.625e-01,8.291e-02
6.675e-01,9.390e-02
6.725e-01,1.062e-01
6.775e-01,1.200e-01
6.825e-01,1.353e-01
6.875e-01,1.524e-01
6.925e-01,1.715e-01
6.975e-01,1.926e-01
7.025e-01,2.161e-01
7.075e-01,2.422e-01
7.125e-01,2.710e-01
7.175e-01,3.029e-01
7.225e-01,3.380e-01
7.275e-01,3.767e-01
7.325e-01,4.193e-01
7.375e-01,4.661e-01
7.425e-01,5.175e-01
7.475e-01,5.737e-01
7.525e-01,6.351e-01
7.575e-01,7.022e-01
7.625e-01,7.753e-01
7.675e-01,8.548e-01
7.725e-01,9.412e-01
7.775e-01,1.035e+00
7.825e-01,1.136e+00
7.875e-01,1.246e+00
7.925e-01,1.364e+00
7.975e-01,1.490e+00
8.025e-01,1.627e+00
8.075e-01,1.773e+00
8.125e-01,1.928e+00
8.175e-01,2.095e+00
8.225e-01,2.271e+00
8.275e-01,2.459e+00
8.325e-01,2.657e+00
8.375e-01,2.866e+00
8.425e-01,3.086e+00
8.475e-01,3.316e+00
8.525e-01,3.555e+00
8.575e-01,3.804e+00
8.625e-01,4.062e+00
8.675e-01,4.327e+00
8.725e-01,4.598e+00
8.775e-01,4.873e+00
8.825e-01,5.151e+00
8.875e-01,5.428e+00
8.925e-01,5.703e+00
8.975e-01,5.971e+00
9.025e-01,6.230e+00
9.075e-01,6.474e+00
9.125e-01,6.699e+00
9.175e-01,6.899e+00
9.225e-01,7.067e+00
9.275e-01,7.198e+00
9.325e-01,7.282e+00
9.375e-01,7.312e+00
9.425e-01,7.279e+00
9.475e-01,7.172e+00
9.525e-01,6.982e+00
9.575e-01,6.697e+00
9.625e-01,6.308e+00
9.675e-01,5.804e+00
9.725e-01,5.178e+00
9.775e-01,4.424e+00
9.825e-01,3.542e+00
9.875e-01,2.543e+00
9.925e-01,1.462e+00
9.975e-01,3.977e-01
