transmittance,probability_density
1.682e-03,2.289e-01
5.047e-03,4.578e-01
8.412e-03,6.926e-01
1.178e-02,9.988e-01
1.514e-02,1.269e+00
1.851e-02,1.579e+00
2.187e-02,1.798e+00
2.524e-02,2.173e+00
2.860e-02,2.467e+00
3.197e-02,2.895e+00
3.533e-02,3.095e+00
3.870e-02,3.344e+00
4.206e-02,3.796e+00
4.543e-02,4.263e+00
4.879e-02,4.474e+00
5.216e-02,4.804e+00
5.552e-02,5.309e+00
5.889e-02,5.621e+00
6.225e-02,6.052e+00
6.562e-02,6.585e+00
6.898e-02,6.932e+00
7.235e-02,7.441e+00
7.571e-02,7.631e+00
7.908e-02,7.961e+00
8.244e-02,8.567e+00
8.580e-02,9.120e+00
8.917e-02,9.397e+00
9.253e-02,9.646e+00
9.590e-02,9.932e+00
9.926e-02,9.968e+00
1.026e-01,1.037e+01
1.060e-01,1.038e+01
1.094e-01,9.914e+00
1.127e-01,1.014e+01
1.161e-01,9.807e+00
1.195e-01,9.670e+00
1.228e-01,9.215e+00
1.262e-01,8.466e+00
1.295e-01,8.110e+00
1.329e-01,7.515e+00
1.363e-01,6.727e+00
1.396e-01,6.365e+00
1.430e-01,5.547e+00
1.464e-01,5.086e+00
1.497e-01,4.587e+00
1.531e-01,3.870e+00
1.565e-01,3.621e+00
1.598e-01,2.892e+00
1.632e-01,2.723e+00
1.666e-01,2.238e+00
1.699e-01,1.900e+00
1.733e-01,1.623e+00
1.767e-01,1.513e+00
1.800e-01,1.246e+00
1.834e-01,8.651e-01
1.868e-01,8.710e-01
1.901e-01,6.629e-01
1.935e-01,5.708e-01
1.968e-01,4.459e-01
2.002e-01,3.419e-01
2.036e-01,2.854e-01
2.069e-01,2.438e-01
2.103e-01,1.843e-01
2.137e-01,1.367e-01
2.170e-01,1.308e-01
2.204e-01,7.729e-02
2.238e-01,5.648e-02
2.271e-01,5.648e-02
2.305e-01,5.351e-02
2.339e-01,4.459e-02
2.372e-01,2.081e-02
2.406e-01,2.081e-02
2.440e-01,2.081e-02
2.473e-01,1.486e-02
2.507e-01,1.784e-02
2.540e-01,1.189e-02
2.574e-01,2.973e-03
2.608e-01,8.918e-03
2.641e-01,2.973e-03
2.675e-01,0.000e+00
2.709e-01,2.973e-03
2.742e-01,0.000e+00
2.776e-01,0.000e+00
2.810e-01,2.973e-03
2.843e-01,0.000e+00
2.877e-01,0.000e+00
2.911e-01,2.973e-03
2.944e-01,0.000e+00
2.978e-01,0.000e+00
3.012e-01,0.000e+00
3.045e-01,0.000e+00
3.079e-01,0.000e+00
3.113e-01,0.000e+00
3.146e-01,0.000e+00
3.180e-01,0.000e+00
3.213e-01,0.000e+00
3.247e-01,0.000e+00
3.281e-01,0.000e+00
3.314e-01,0.000e+00
3.348e-01,0.000e+00
3.382e-01,0.000e+00
3.415e-01,0.000e+00
3.449e-01,0.000e+00
3.483e-01,0.000e+00
3.516e-01,0.000e+00
3.550e-01,0.000e+00
3.584e-01,0.000e+00
3.617e-01,0.000e+00
3.651e-01,0.000e+00
3.685e-01,0.000e+00
3.718e-01,0.000e+00
3.752e-01,0.000e+00
3.786e-01,0.000e+00
3.819e-01,0.000e+00
3.853e-01,0.000e+00
3.886e-01,0.000e+00
3.920e-01,0.000e+00
3.954e-01,0.000e+00
3.987e-01,0.000e+00
4.021e-01,0.000e+00
4.055e-01,0.000e+00
4.088e-01,0.000e+00
4.122e-01,0.000e+00
4.156e-01,0.000e+00
4.189e-01,0.000e+00
4.223e-01,0.000e+00
4.257e-01,0.000e+00
4.290e-01,0.000e+00
4.324e-01,0.000e+00
4.358e-01,0.000e+00
4.391e-01,0.000e+00
4.425e-01,0.000e+00
4.458e-01,0.000e+00
4.492e-01,0.000e+00
4.526e-01,0.000e+00
4.559e-01,0.000e+00
4.593e-01,0.000e+00
4.627e-01,0.000e+00
4.660e-01,0.000e+00
4.694e-01,0.000e+00
4.728e-01,0.000e+00
4.761e-01,0.000e+00
4.795e-01,0.000e+00
4.829e-01,0.000e+00
4.862e-01,0.000e+00
4.896e-01,0.000e+00
4.930e-01,0.000e+00
4.963e-01,0.000e+00
4.997e-01,0.000e+00
5.031e-01,0.000e+00
5.064e-01,0.000e+00
5.098e-01,0.000e+00
5.131e-01,0.000e+00
5.165e-01,0.000e+00
5.199e-01,0.000e+00
5.232e-01,0.000e+00
5.266e-01,0.000e+00
5.300e-01,0.000e+00
5.333e-01,0.000e+00
5.367e-01,0.000e+00
5.401e-01,0.000e+00
5.434e-01,0.000e+00
5.468e-01,0.000e+00
5.502e-01,0.000e+00
5.535e-01,0.000e+00
5.569e-01,0.000e+00
5.603e-01,0.000e+00
5.636e-01,0.000e+00
5.670e-01,0.000e+00
5.704e-01,0.000e+00
5.737e-01,0.000e+00
5.771e-01,0.000e+00
5.804e-01,0.000e+00
5.838e-01,0.000e+00
5.872e-01,0.000e+00
5.905e-01,0.000e+00
5.939e-01,0.000e+00
5.973e-01,0.000e+00
6.006e-01,0.000e+00
6.040e-01,0.000e+00
6.074e-01,0.000e+00
6.107e-01,0.000e+00
6.141e-01,0.000e+00
6.175e-01,0.000e+00
6.208e-01,0.000e+00
6.242e-01,0.000e+00
6.276e-01,0.000e+00
6.309e-01,0.000e+00
6.343e-01,0.000e+00
6.376e-01,0.000e+00
6.410e-01,0.000e+00
6.444e-01,0.000e+00
6.477e-01,0.000e+00
6.511e-01,0.000e+00
6.545e-01,0.000e+00
6.578e-01,0.000e+00
6.612e-01,0.000e+00
6.646e-01,0.000e+00
6.679e-01,0.000e+00
6.713e-01,0.000e+00
