transmittance,probability_density
3.025e-05,3.286e-45
9.075e-05,3.598e-25
1.512e-04,9.901e-18
2.117e-04,1.757e-13
2.722e-04,1.205e-10
3.327e-04,1.376e-08
3.932e-04,5.142e-07
4.537e-04,9.053e-06
5.142e-04,9.324e-05
5.747e-04,6.450e-04
6.352e-04,3.289e-03
6.957e-04,1.320e-02
7.562e-04,4.368e-02
8.167e-04,1.236e-01
8.772e-04,3.069e-01
9.377e-04,6.835e-01
9.983e-04,1.388e+00
1.059e-03,2.602e+00
1.119e-03,4.557e+00
1.180e-03,7.521e+00
1.240e-03,1.178e+01
1.301e-03,1.763e+01
1.361e-03,2.533e+01
1.422e-03,3.511e+01
1.482e-03,4.711e+01
1.543e-03,6.141e+01
1.603e-03,7.799e+01
1.664e-03,9.674e+01
1.724e-03,1.175e+02
1.785e-03,1.399e+02
1.845e-03,1.637e+02
1.906e-03,1.884e+02
1.966e-03,2.137e+02
2.027e-03,2.391e+02
2.087e-03,2.642e+02
2.148e-03,2.885e+02
2.208e-03,3.118e+02
2.269e-03,3.336e+02
2.329e-03,3.536e+02
2.390e-03,3.717e+02
2.450e-03,3.877e+02
2.511e-03,4.014e+02
2.571e-03,4.127e+02
2.632e-03,4.216e+02
2.692e-03,4.282e+02
2.753e-03,4.324e+02
2.813e-03,4.344e+02
2.874e-03,4.343e+02
2.934e-03,4.321e+02
2.995e-03,4.281e+02
3.055e-03,4.225e+02
3.116e-03,4.153e+02
3.176e-03,4.068e+02
3.237e-03,3.971e+02
3.297e-03,3.863e+02
3.358e-03,3.748e+02
3.418e-03,3.626e+02
3.479e-03,3.498e+02
3.539e-03,3.366e+02
3.600e-03,3.231e+02
3.660e-03,3.095e+02
3.721e-03,2.958e+02
3.781e-03,2.822e+02
3.842e-03,2.686e+02
3.902e-03,2.553e+02
3.963e-03,2.422e+02
4.023e-03,2.294e+02
4.084e-03,2.169e+02
4.144e-03,2.048e+02
4.205e-03,1.931e+02
4.265e-03,1.818e+02
4.326e-03,1.710e+02
4.386e-03,1.607e+02
4.447e-03,1.507e+02
4.507e-03,1.413e+02
4.568e-03,1.323e+02
4.628e-03,1.238e+02
4.689e-03,1.157e+02
4.749e-03,1.080e+02
4.810e-03,1.008e+02
4.870e-03,9.394e+01
4.931e-03,8.751e+01
4.991e-03,8.147e+01
5.052e-03,7.579e+01
5.112e-03,7.046e+01
5.173e-03,6.546e+01
5.233e-03,6.079e+01
5.294e-03,5.642e+01
5.354e-03,5.233e+01
5.415e-03,4.852e+01
5.475e-03,4.496e+01
5.536e-03,4.165e+01
5.596e-03,3.856e+01
5.657e-03,3.569e+01
5.717e-03,3.302e+01
5.778e-03,3.054e+01
5.838e-03,2.824e+01
5.899e-03,2.610e+01
5.959e-03,2.412e+01
6.020e-03,2.228e+01
6.080e-03,2.057e+01
6.141e-03,1.899e+01
6.201e-03,1.753e+01
6.262e-03,1.618e+01
6.322e-03,1.493e+01
6.383e-03,1.377e+01
6.443e-03,1.270e+01
6.504e-03,1.171e+01
6.564e-03,1.080e+01
6.625e-03,9.956e+00
6.685e-03,9.177e+00
6.746e-03,8.458e+00
6.806e-03,7.794e+00
6.867e-03,7.182e+00
6.927e-03,6.617e+00
6.988e-03,6.096e+00
7.048e-03,5.616e+00
7.109e-03,5.173e+00
7.169e-03,4.765e+00
7.230e-03,4.389e+00
7.290e-03,4.042e+00
7.351e-03,3.722e+00
7.411e-03,3.428e+00
7.472e-03,3.157e+00
7.532e-03,2.907e+00
7.593e-03,2.677e+00
7.653e-03,2.465e+00
7.714e-03,2.270e+00
7.774e-03,2.090e+00
7.835e-03,1.925e+00
7.895e-03,1.772e+00
7.956e-03,1.632e+00
8.016e-03,1.503e+00
8.077e-03,1.384e+00
8.137e-03,1.275e+00
8.198e-03,1.174e+00
8.258e-03,1.081e+00
8.319e-03,9.959e-01
8.379e-03,9.172e-01
8.440e-03,8.449e-01
8.500e-03,7.783e-01
8.561e-03,7.169e-01
8.621e-03,6.605e-01
8.682e-03,6.085e-01
8.742e-03,5.606e-01
8.803e-03,5.166e-01
8.863e-03,4.760e-01
8.924e-03,4.387e-01
8.984e-03,4.043e-01
9.045e-03,3.726e-01
9.105e-03,3.434e-01
9.166e-03,3.166e-01
9.226e-03,2.919e-01
9.287e-03,2.691e-01
9.347e-03,2.481e-01
9.408e-03,2.288e-01
9.468e-03,2.110e-01
9.529e-03,1.946e-01
9.589e-03,1.795e-01
9.650e-03,1.655e-01
9.710e-03,1.527e-01
9.771e-03,1.409e-01
9.831e-03,1.300e-01
9.892e-03,1.200e-01
9.952e-03,1.107e-01
1.001e-02,1.022e-01
1.007e-02,9.433e-02
1.013e-02,8.708e-02
1.019e-02,8.039e-02
1.025e-02,7.423e-02
1.032e-02,6.855e-02
1.038e-02,6.331e-02
1.044e-02,5.847e-02
1.050e-02,5.401e-02
1.056e-02,4.990e-02
1.062e-02,4.610e-02
1.068e-02,4.260e-02
1.074e-02,3.937e-02
1.080e-02,3.638e-02
1.086e-02,3.363e-02
1.092e-02,3.109e-02
1.098e-02,2.874e-02
1.104e-02,2.658e-02
1.110e-02,2.458e-02
1.116e-02,2.273e-02
1.122e-02,2.103e-02
1.128e-02,1.945e-02
1.134e-02,1.799e-02
1.140e-02,1.665e-02
1.146e-02,1.541e-02
1.153e-02,1.426e-02
1.159e-02,1.320e-02
1.165e-02,1.222e-02
1.171e-02,1.131e-02
1.177e-02,1.047e-02
1.183e-02,9.699e-03
1.189e-02,8.983e-03
1.195e-02,8.321e-03
1.201e-02,7.708e-03
1.207e-02,7.141e-03
