transmittance,probability_density
1.504e-01,2.228e-17
1.547e-01,1.295e-16
1.589e-01,6.905e-16
1.632e-01,3.399e-15
1.674e-01,1.552e-14
1.717e-01,6.601e-14
1.760e-01,2.628e-13
1.802e-01,9.830e-13
1.845e-01,3.467e-12
1.887e-01,1.157e-11
1.930e-01,3.662e-11
1.972e-01,1.103e-10
2.015e-01,3.171e-10
2.058e-01,8.717e-10
2.100e-01,2.297e-09
2.143e-01,5.817e-09
2.185e-01,1.418e-08
2.228e-01,3.332e-08
2.271e-01,7.565e-08
2.313e-01,1.662e-07
2.356e-01,3.538e-07
2.398e-01,7.311e-07
2.441e-01,1.468e-06
2.484e-01,2.868e-06
2.526e-01,5.457e-06
2.569e-01,1.013e-05
2.611e-01,1.835e-05
2.654e-01,3.250e-05
2.696e-01,5.629e-05
2.739e-01,9.547e-05
2.782e-01,1.586e-04
2.824e-01,2.585e-04
2.867e-01,4.134e-04
2.909e-01,6.494e-04
2.952e-01,1.002e-03
2.995e-01,1.522e-03
3.037e-01,2.273e-03
3.080e-01,3.344e-03
3.122e-01,4.846e-03
3.165e-01,6.922e-03
3.207e-01,9.750e-03
3.250e-01,1.355e-02
3.293e-01,1.859e-02
3.335e-01,2.519e-02
3.378e-01,3.373e-02
3.420e-01,4.463e-02
3.463e-01,5.839e-02
3.506e-01,7.556e-02
3.548e-01,9.676e-02
3.591e-01,1.226e-01
3.633e-01,1.539e-01
3.676e-01,1.913e-01
3.719e-01,2.356e-01
3.761e-01,2.876e-01
3.804e-01,3.480e-01
3.846e-01,4.176e-01
3.889e-01,4.969e-01
3.931e-01,5.866e-01
3.974e-01,6.873e-01
4.017e-01,7.991e-01
4.059e-01,9.225e-01
4.102e-01,1.057e+00
4.144e-01,1.204e+00
4.187e-01,1.361e+00
4.230e-01,1.530e+00
4.272e-01,1.708e+00
4.315e-01,1.895e+00
4.357e-01,2.091e+00
4.400e-01,2.293e+00
4.442e-01,2.501e+00
4.485e-01,2.713e+00
4.528e-01,2.927e+00
4.570e-01,3.142e+00
4.613e-01,3.355e+00
4.655e-01,3.566e+00
4.698e-01,3.771e+00
4.741e-01,3.970e+00
4.783e-01,4.161e+00
4.826e-01,4.341e+00
4.868e-01,4.510e+00
4.911e-01,4.666e+00
4.954e-01,4.807e+00
4.996e-01,4.933e+00
5.039e-01,5.043e+00
5.081e-01,5.135e+00
5.124e-01,5.210e+00
5.166e-01,5.267e+00
5.209e-01,5.306e+00
5.252e-01,5.326e+00
5.294e-01,5.329e+00
5.337e-01,5.315e+00
5.379e-01,5.283e+00
5.422e-01,5.236e+00
5.465e-01,5.173e+00
5.507e-01,5.095e+00
5.550e-01,5.004e+00
5.592e-01,4.901e+00
5.635e-01,4.787e+00
5.677e-01,4.663e+00
5.720e-01,4.530e+00
5.763e-01,4.389e+00
5.805e-01,4.242e+00
5.848e-01,4.090e+00
5.890e-01,3.933e+00
5.933e-01,3.774e+00
5.976e-01,3.613e+00
6.018e-01,3.451e+00
6.061e-01,3.289e+00
6.103e-01,3.128e+00
6.146e-01,2.968e+00
6.189e-01,2.811e+00
6.231e-01,2.657e+00
6.274e-01,2.506e+00
6.316e-01,2.359e+00
6.359e-01,2.216e+00
6.401e-01,2.079e+00
6.444e-01,1.946e+00
6.487e-01,1.819e+00
6.529e-01,1.697e+00
6.572e-01,1.580e+00
6.614e-01,1.469e+00
6.657e-01,1.364e+00
6.700e-01,1.264e+00
6.742e-01,1.170e+00
6.785e-01,1.081e+00
6.827e-01,9.969e-01
6.870e-01,9.183e-01
6.912e-01,8.447e-01
6.955e-01,7.759e-01
6.998e-01,7.118e-01
7.040e-01,6.520e-01
7.083e-01,5.965e-01
7.125e-01,5.450e-01
7.168e-01,4.973e-01
7.211e-01,4.532e-01
7.253e-01,4.126e-01
7.296e-01,3.751e-01
7.338e-01,3.406e-01
7.381e-01,3.090e-01
7.424e-01,2.799e-01
7.466e-01,2.534e-01
7.509e-01,2.291e-01
7.551e-01,2.069e-01
7.594e-01,1.866e-01
7.636e-01,1.682e-01
7.679e-01,1.515e-01
7.722e-01,1.362e-01
7.764e-01,1.224e-01
7.807e-01,1.099e-01
7.849e-01,9.859e-02
7.892e-01,8.835e-02
7.935e-01,7.911e-02
7.977e-01,7.077e-02
8.020e-01,6.326e-02
8.062e-01,5.649e-02
8.105e-01,5.041e-02
8.147e-01,4.495e-02
8.190e-01,4.005e-02
8.233e-01,3.565e-02
8.275e-01,3.172e-02
8.318e-01,2.819e-02
8.360e-01,2.504e-02
8.403e-01,2.223e-02
8.446e-01,1.972e-02
8.488e-01,1.748e-02
8.531e-01,1.548e-02
8.573e-01,1.371e-02
8.616e-01,1.213e-02
8.659e-01,1.072e-02
8.701e-01,9.473e-03
8.744e-01,8.365e-03
8.786e-01,7.382e-03
8.829e-01,6.511e-03
8.871e-01,5.739e-03
8.914e-01,5.056e-03
8.957e-01,4.452e-03
8.999e-01,3.918e-03
9.042e-01,3.446e-03
9.084e-01,3.030e-03
9.127e-01,2.662e-03
9.170e-01,2.338e-03
9.212e-01,2.052e-03
9.255e-01,1.800e-03
9.297e-01,1.579e-03
9.340e-01,1.384e-03
9.382e-01,1.213e-03
9.425e-01,1.062e-03
9.468e-01,9.295e-04
9.510e-01,8.133e-04
9.553e-01,7.114e-04
9.595e-01,6.219e-04
9.638e-01,5.435e-04
9.681e-01,4.748e-04
9.723e-01,4.146e-04
9.766e-01,3.619e-04
9.808e-01,3.158e-04
9.851e-01,2.755e-04
9.894e-01,2.402e-04
9.936e-01,2.094e-04
9.979e-01,1.824e-04
