transmittance,probability_density
2.833e-01,8.442e-19
2.868e-01,2.837e-18
2.904e-01,9.234e-18
2.940e-01,2.914e-17
2.976e-01,8.924e-17
3.012e-01,2.654e-16
3.048e-01,7.677e-16
3.084e-01,2.160e-15
3.120e-01,5.919e-15
3.156e-01,1.580e-14
3.192e-01,4.116e-14
3.228e-01,1.046e-13
3.264e-01,2.597e-13
3.300e-01,6.300e-13
3.335e-01,1.495e-12
3.371e-01,3.469e-12
3.407e-01,7.885e-12
3.443e-01,1.756e-11
3.479e-01,3.831e-11
3.515e-01,8.201e-11
3.551e-01,1.722e-10
3.587e-01,3.551e-10
3.623e-01,7.189e-10
3.659e-01,1.430e-09
3.695e-01,2.798e-09
3.731e-01,5.382e-09
3.767e-01,1.019e-08
3.803e-01,1.898e-08
3.838e-01,3.481e-08
3.874e-01,6.290e-08
3.910e-01,1.120e-07
3.946e-01,1.966e-07
3.982e-01,3.402e-07
4.018e-01,5.808e-07
4.054e-01,9.783e-07
4.090e-01,1.627e-06
4.126e-01,2.670e-06
4.162e-01,4.329e-06
4.198e-01,6.934e-06
4.234e-01,1.098e-05
4.270e-01,1.717e-05
4.306e-01,2.656e-05
4.341e-01,4.062e-05
4.377e-01,6.147e-05
4.413e-01,9.203e-05
4.449e-01,1.363e-04
4.485e-01,2.000e-04
4.521e-01,2.904e-04
4.557e-01,4.175e-04
4.593e-01,5.947e-04
4.629e-01,8.392e-04
4.665e-01,1.173e-03
4.701e-01,1.626e-03
4.737e-01,2.234e-03
4.773e-01,3.042e-03
4.809e-01,4.108e-03
4.844e-01,5.503e-03
4.880e-01,7.311e-03
4.916e-01,9.637e-03
4.952e-01,1.260e-02
4.988e-01,1.636e-02
5.024e-01,2.108e-02
5.060e-01,2.696e-02
5.096e-01,3.424e-02
5.132e-01,4.317e-02
5.168e-01,5.406e-02
5.204e-01,6.725e-02
5.240e-01,8.310e-02
5.276e-01,1.020e-01
5.311e-01,1.244e-01
5.347e-01,1.508e-01
5.383e-01,1.817e-01
5.419e-01,2.176e-01
5.455e-01,2.591e-01
5.491e-01,3.066e-01
5.527e-01,3.608e-01
5.563e-01,4.222e-01
5.599e-01,4.914e-01
5.635e-01,5.688e-01
5.671e-01,6.549e-01
5.707e-01,7.501e-01
5.743e-01,8.548e-01
5.779e-01,9.692e-01
5.814e-01,1.093e+00
5.850e-01,1.228e+00
5.886e-01,1.372e+00
5.922e-01,1.526e+00
5.958e-01,1.689e+00
5.994e-01,1.862e+00
6.030e-01,2.043e+00
6.066e-01,2.231e+00
6.102e-01,2.427e+00
6.138e-01,2.629e+00
6.174e-01,2.835e+00
6.210e-01,3.046e+00
6.246e-01,3.259e+00
6.282e-01,3.473e+00
6.317e-01,3.687e+00
6.353e-01,3.899e+00
6.389e-01,4.108e+00
6.425e-01,4.312e+00
6.461e-01,4.509e+00
6.497e-01,4.699e+00
6.533e-01,4.880e+00
6.569e-01,5.050e+00
6.605e-01,5.208e+00
6.641e-01,5.353e+00
6.677e-01,5.484e+00
6.713e-01,5.600e+00
6.749e-01,5.700e+00
6.785e-01,5.784e+00
6.820e-01,5.851e+00
6.856e-01,5.900e+00
6.892e-01,5.932e+00
6.928e-01,5.947e+00
6.964e-01,5.944e+00
7.000e-01,5.925e+00
7.036e-01,5.889e+00
7.072e-01,5.836e+00
7.108e-01,5.769e+00
7.144e-01,5.687e+00
7.180e-01,5.591e+00
7.216e-01,5.482e+00
7.252e-01,5.362e+00
7.287e-01,5.231e+00
7.323e-01,5.091e+00
7.359e-01,4.942e+00
7.395e-01,4.786e+00
7.431e-01,4.623e+00
7.467e-01,4.456e+00
7.503e-01,4.285e+00
7.539e-01,4.111e+00
7.575e-01,3.935e+00
7.611e-01,3.759e+00
7.647e-01,3.582e+00
7.683e-01,3.407e+00
7.719e-01,3.233e+00
7.755e-01,3.061e+00
7.790e-01,2.893e+00
7.826e-01,2.729e+00
7.862e-01,2.568e+00
7.898e-01,2.412e+00
7.934e-01,2.262e+00
7.970e-01,2.116e+00
8.006e-01,1.977e+00
8.042e-01,1.843e+00
8.078e-01,1.715e+00
8.114e-01,1.593e+00
8.150e-01,1.477e+00
8.186e-01,1.367e+00
8.222e-01,1.263e+00
8.258e-01,1.165e+00
8.293e-01,1.072e+00
8.329e-01,9.859e-01
8.365e-01,9.048e-01
8.401e-01,8.291e-01
8.437e-01,7.584e-01
8.473e-01,6.927e-01
8.509e-01,6.317e-01
8.545e-01,5.752e-01
8.581e-01,5.230e-01
8.617e-01,4.747e-01
8.653e-01,4.303e-01
8.689e-01,3.895e-01
8.725e-01,3.521e-01
8.761e-01,3.178e-01
8.796e-01,2.864e-01
8.832e-01,2.578e-01
8.868e-01,2.317e-01
8.904e-01,2.080e-01
8.940e-01,1.865e-01
8.976e-01,1.670e-01
9.012e-01,1.493e-01
9.048e-01,1.333e-01
9.084e-01,1.189e-01
9.120e-01,1.059e-01
9.156e-01,9.425e-02
9.192e-01,8.376e-02
9.228e-01,7.434e-02
9.263e-01,6.591e-02
9.299e-01,5.837e-02
9.335e-01,5.163e-02
9.371e-01,4.561e-02
9.407e-01,4.026e-02
9.443e-01,3.549e-02
9.479e-01,3.125e-02
9.515e-01,2.749e-02
9.551e-01,2.416e-02
9.587e-01,2.121e-02
9.623e-01,1.860e-02
9.659e-01,1.629e-02
9.695e-01,1.426e-02
9.731e-01,1.247e-02
9.766e-01,1.089e-02
9.802e-01,9.503e-03
9.838e-01,8.285e-03
9.874e-01,7.216e-03
9.910e-01,6.279e-03
9.946e-01,5.459e-03
9.982e-01,4.742e-03
