transmittance,probability_density
3.226e-01,4.438e-19
3.260e-01,1.368e-18
3.294e-01,4.111e-18
3.328e-01,1.204e-17
3.362e-01,3.442e-17
3.396e-01,9.602e-17
3.430e-01,2.617e-16
3.464e-01,6.971e-16
3.498e-01,1.816e-15
3.532e-01,4.630e-15
3.566e-01,1.156e-14
3.600e-01,2.825e-14
3.634e-01,6.769e-14
3.667e-01,1.590e-13
3.701e-01,3.665e-13
3.735e-01,8.290e-13
3.769e-01,1.841e-12
3.803e-01,4.016e-12
3.837e-01,8.609e-12
3.871e-01,1.814e-11
3.905e-01,3.760e-11
3.939e-01,7.666e-11
3.973e-01,1.538e-10
4.007e-01,3.039e-10
4.041e-01,5.913e-10
4.075e-01,1.134e-09
4.109e-01,2.141e-09
4.143e-01,3.988e-09
4.177e-01,7.325e-09
4.211e-01,1.327e-08
4.245e-01,2.372e-08
4.279e-01,4.185e-08
4.313e-01,7.290e-08
4.347e-01,1.254e-07
4.381e-01,2.131e-07
4.414e-01,3.577e-07
4.448e-01,5.934e-07
4.482e-01,9.732e-07
4.516e-01,1.578e-06
4.550e-01,2.530e-06
4.584e-01,4.014e-06
4.618e-01,6.300e-06
4.652e-01,9.784e-06
4.686e-01,1.504e-05
4.720e-01,2.289e-05
4.754e-01,3.449e-05
4.788e-01,5.148e-05
4.822e-01,7.610e-05
4.856e-01,1.115e-04
4.890e-01,1.618e-04
4.924e-01,2.327e-04
4.958e-01,3.318e-04
4.992e-01,4.690e-04
5.026e-01,6.573e-04
5.060e-01,9.137e-04
5.094e-01,1.260e-03
5.128e-01,1.723e-03
5.161e-01,2.338e-03
5.195e-01,3.148e-03
5.229e-01,4.206e-03
5.263e-01,5.579e-03
5.297e-01,7.346e-03
5.331e-01,9.604e-03
5.365e-01,1.247e-02
5.399e-01,1.607e-02
5.433e-01,2.057e-02
5.467e-01,2.616e-02
5.501e-01,3.305e-02
5.535e-01,4.149e-02
5.569e-01,5.174e-02
5.603e-01,6.413e-02
5.637e-01,7.900e-02
5.671e-01,9.672e-02
5.705e-01,1.177e-01
5.739e-01,1.424e-01
5.773e-01,1.714e-01
5.807e-01,2.050e-01
5.841e-01,2.438e-01
5.875e-01,2.885e-01
5.908e-01,3.395e-01
5.942e-01,3.973e-01
5.976e-01,4.626e-01
6.010e-01,5.359e-01
6.044e-01,6.177e-01
6.078e-01,7.084e-01
6.112e-01,8.085e-01
6.146e-01,9.182e-01
6.180e-01,1.038e+00
6.214e-01,1.168e+00
6.248e-01,1.308e+00
6.282e-01,1.458e+00
6.316e-01,1.618e+00
6.350e-01,1.788e+00
6.384e-01,1.968e+00
6.418e-01,2.156e+00
6.452e-01,2.352e+00
6.486e-01,2.556e+00
6.520e-01,2.766e+00
6.554e-01,2.981e+00
6.588e-01,3.201e+00
6.622e-01,3.423e+00
6.655e-01,3.646e+00
6.689e-01,3.870e+00
6.723e-01,4.092e+00
6.757e-01,4.311e+00
6.791e-01,4.526e+00
6.825e-01,4.734e+00
6.859e-01,4.934e+00
6.893e-01,5.125e+00
6.927e-01,5.306e+00
6.961e-01,5.474e+00
6.995e-01,5.630e+00
7.029e-01,5.770e+00
7.063e-01,5.896e+00
7.097e-01,6.005e+00
7.131e-01,6.097e+00
7.165e-01,6.171e+00
7.199e-01,6.227e+00
7.233e-01,6.266e+00
7.267e-01,6.285e+00
7.301e-01,6.287e+00
7.335e-01,6.270e+00
7.369e-01,6.236e+00
7.402e-01,6.185e+00
7.436e-01,6.117e+00
7.470e-01,6.034e+00
7.504e-01,5.936e+00
7.538e-01,5.824e+00
7.572e-01,5.699e+00
7.606e-01,5.563e+00
7.640e-01,5.416e+00
7.674e-01,5.260e+00
7.708e-01,5.096e+00
7.742e-01,4.925e+00
7.776e-01,4.748e+00
7.810e-01,4.567e+00
7.844e-01,4.383e+00
7.878e-01,4.196e+00
7.912e-01,4.008e+00
7.946e-01,3.820e+00
7.980e-01,3.633e+00
8.014e-01,3.447e+00
8.048e-01,3.264e+00
8.082e-01,3.084e+00
8.116e-01,2.907e+00
8.149e-01,2.735e+00
8.183e-01,2.568e+00
8.217e-01,2.407e+00
8.251e-01,2.251e+00
8.285e-01,2.101e+00
8.319e-01,1.957e+00
8.353e-01,1.819e+00
8.387e-01,1.688e+00
8.421e-01,1.564e+00
8.455e-01,1.446e+00
8.489e-01,1.334e+00
8.523e-01,1.229e+00
8.557e-01,1.130e+00
8.591e-01,1.038e+00
8.625e-01,9.508e-01
8.659e-01,8.698e-01
8.693e-01,7.944e-01
8.727e-01,7.242e-01
8.761e-01,6.592e-01
8.795e-01,5.991e-01
8.829e-01,5.435e-01
8.863e-01,4.923e-01
8.896e-01,4.453e-01
8.930e-01,4.021e-01
8.964e-01,3.625e-01
8.998e-01,3.264e-01
9.032e-01,2.934e-01
9.066e-01,2.634e-01
9.100e-01,2.361e-01
9.134e-01,2.113e-01
9.168e-01,1.888e-01
9.202e-01,1.685e-01
9.236e-01,1.502e-01
9.270e-01,1.337e-01
9.304e-01,1.188e-01
9.338e-01,1.055e-01
9.372e-01,9.350e-02
9.406e-01,8.278e-02
9.440e-01,7.319e-02
9.474e-01,6.463e-02
9.508e-01,5.700e-02
9.542e-01,5.021e-02
9.576e-01,4.417e-02
9.610e-01,3.881e-02
9.643e-01,3.406e-02
9.677e-01,2.986e-02
9.711e-01,2.615e-02
9.745e-01,2.287e-02
9.779e-01,1.997e-02
9.813e-01,1.743e-02
9.847e-01,1.519e-02
9.881e-01,1.323e-02
9.915e-01,1.150e-02
9.949e-01,9.993e-03
9.983e-01,8.672e-03
