transmittance,probability_density
7.846e-04,0.000e+00
2.354e-03,0.000e+00
3.923e-03,3.819e-03
5.492e-03,5.728e-03
7.061e-03,1.146e-02
8.630e-03,2.482e-02
1.020e-02,3.055e-02
1.177e-02,7.065e-02
1.334e-02,1.107e-01
1.491e-02,1.738e-01
1.648e-02,2.406e-01
1.805e-02,3.494e-01
1.961e-02,4.850e-01
2.118e-02,6.587e-01
2.275e-02,8.249e-01
2.432e-02,1.064e+00
2.589e-02,1.371e+00
2.746e-02,1.592e+00
2.903e-02,1.915e+00
3.060e-02,2.316e+00
3.217e-02,2.692e+00
3.374e-02,3.236e+00
3.531e-02,3.427e+00
3.688e-02,4.168e+00
3.844e-02,4.646e+00
4.001e-02,5.180e+00
4.158e-02,5.770e+00
4.315e-02,6.179e+00
4.472e-02,6.813e+00
4.629e-02,7.292e+00
4.786e-02,7.977e+00
4.943e-02,8.453e+00
5.100e-02,8.995e+00
5.257e-02,9.438e+00
5.414e-02,9.893e+00
5.570e-02,1.032e+01
5.727e-02,1.081e+01
5.884e-02,1.142e+01
6.041e-02,1.165e+01
6.198e-02,1.195e+01
6.355e-02,1.225e+01
6.512e-02,1.272e+01
6.669e-02,1.258e+01
6.826e-02,1.302e+01
6.983e-02,1.287e+01
7.140e-02,1.335e+01
7.297e-02,1.322e+01
7.453e-02,1.288e+01
7.610e-02,1.319e+01
7.767e-02,1.337e+01
7.924e-02,1.305e+01
8.081e-02,1.283e+01
8.238e-02,1.299e+01
8.395e-02,1.264e+01
8.552e-02,1.244e+01
8.709e-02,1.232e+01
8.866e-02,1.223e+01
9.023e-02,1.182e+01
9.180e-02,1.156e+01
9.336e-02,1.117e+01
9.493e-02,1.103e+01
9.650e-02,1.052e+01
9.807e-02,1.033e+01
9.964e-02,1.008e+01
1.012e-01,9.308e+00
1.028e-01,9.379e+00
1.043e-01,9.175e+00
1.059e-01,9.008e+00
1.075e-01,7.750e+00
1.091e-01,8.119e+00
1.106e-01,7.624e+00
1.122e-01,6.864e+00
1.138e-01,7.027e+00
1.153e-01,6.605e+00
1.169e-01,6.062e+00
1.185e-01,5.959e+00
1.200e-01,5.742e+00
1.216e-01,5.468e+00
1.232e-01,5.131e+00
1.247e-01,4.884e+00
1.263e-01,4.518e+00
1.279e-01,3.977e+00
1.295e-01,4.036e+00
1.310e-01,3.775e+00
1.326e-01,3.441e+00
1.342e-01,3.320e+00
1.357e-01,3.107e+00
1.373e-01,3.105e+00
1.389e-01,2.908e+00
1.404e-01,2.637e+00
1.420e-01,2.305e+00
1.436e-01,2.333e+00
1.451e-01,2.163e+00
1.467e-01,2.045e+00
1.483e-01,1.715e+00
1.499e-01,1.864e+00
1.514e-01,1.571e+00
1.530e-01,1.384e+00
1.546e-01,1.415e+00
1.561e-01,1.224e+00
1.577e-01,1.048e+00
1.593e-01,1.115e+00
1.608e-01,9.986e-01
1.624e-01,8.707e-01
1.640e-01,8.630e-01
1.655e-01,7.695e-01
1.671e-01,6.549e-01
1.687e-01,6.034e-01
1.703e-01,6.511e-01
1.718e-01,6.015e-01
1.734e-01,4.850e-01
1.750e-01,5.155e-01
1.765e-01,4.812e-01
1.781e-01,3.991e-01
1.797e-01,3.914e-01
1.812e-01,3.494e-01
1.828e-01,3.494e-01
1.844e-01,2.807e-01
1.859e-01,2.310e-01
1.875e-01,2.406e-01
1.891e-01,2.559e-01
1.907e-01,1.871e-01
1.922e-01,1.852e-01
1.938e-01,1.585e-01
1.954e-01,1.375e-01
1.969e-01,1.260e-01
1.985e-01,1.127e-01
2.001e-01,1.317e-01
2.016e-01,8.783e-02
2.032e-01,9.547e-02
2.048e-01,9.547e-02
2.063e-01,8.974e-02
2.079e-01,8.401e-02
2.095e-01,6.301e-02
2.111e-01,6.683e-02
2.126e-01,5.155e-02
2.142e-01,4.583e-02
2.158e-01,5.537e-02
2.173e-01,3.437e-02
2.189e-01,4.201e-02
2.205e-01,2.482e-02
2.220e-01,1.146e-02
2.236e-01,2.864e-02
2.252e-01,3.628e-02
2.267e-01,1.528e-02
2.283e-01,2.100e-02
2.299e-01,1.337e-02
2.314e-01,1.718e-02
2.330e-01,2.482e-02
2.346e-01,1.528e-02
2.362e-01,1.337e-02
2.377e-01,3.819e-03
2.393e-01,5.728e-03
2.409e-01,1.146e-02
2.424e-01,7.638e-03
2.440e-01,5.728e-03
2.456e-01,5.728e-03
2.471e-01,7.638e-03
2.487e-01,5.728e-03
2.503e-01,5.728e-03
2.518e-01,5.728e-03
2.534e-01,1.909e-03
2.550e-01,5.728e-03
2.566e-01,0.000e+00
2.581e-01,1.909e-03
2.597e-01,0.000e+00
2.613e-01,0.000e+00
2.628e-01,3.819e-03
2.644e-01,0.000e+00
2.660e-01,1.909e-03
2.675e-01,1.909e-03
2.691e-01,0.000e+00
2.707e-01,0.000e+00
2.722e-01,0.000e+00
2.738e-01,3.819e-03
2.754e-01,0.000e+00
2.770e-01,1.909e-03
2.785e-01,1.909e-03
2.801e-01,0.000e+00
2.817e-01,0.000e+00
2.832e-01,0.000e+00
2.848e-01,1.909e-03
2.864e-01,0.000e+00
2.879e-01,0.000e+00
2.895e-01,0.000e+00
2.911e-01,0.000e+00
2.926e-01,0.000e+00
2.942e-01,0.000e+00
2.958e-01,0.000e+00
2.974e-01,0.000e+00
2.989e-01,0.000e+00
3.005e-01,0.000e+00
3.021e-01,0.000e+00
3.036e-01,0.000e+00
3.052e-01,0.000e+00
3.068e-01,0.000e+00
3.083e-01,0.000e+00
3.099e-01,0.000e+00
3.115e-01,0.000e+00
3.130e-01,0.000e+00
