transmittance,probability_density
8.005e-04,4.477e+00
2.402e-03,9.438e+00
4.003e-03,1.263e+01
5.604e-03,1.483e+01
7.205e-03,1.635e+01
8.806e-03,1.739e+01
1.041e-02,1.807e+01
1.201e-02,1.847e+01
1.361e-02,1.865e+01
1.521e-02,1.866e+01
1.681e-02,1.855e+01
1.841e-02,1.832e+01
2.001e-02,1.802e+01
2.161e-02,1.765e+01
2.322e-02,1.723e+01
2.482e-02,1.677e+01
2.642e-02,1.629e+01
2.802e-02,1.578e+01
2.962e-02,1.527e+01
3.122e-02,1.474e+01
3.282e-02,1.422e+01
3.442e-02,1.369e+01
3.602e-02,1.317e+01
3.762e-02,1.265e+01
3.923e-02,1.215e+01
4.083e-02,1.165e+01
4.243e-02,1.117e+01
4.403e-02,1.069e+01
4.563e-02,1.023e+01
4.723e-02,9.785e+00
4.883e-02,9.353e+00
5.043e-02,8.934e+00
5.203e-02,8.530e+00
5.364e-02,8.141e+00
5.524e-02,7.765e+00
5.684e-02,7.404e+00
5.844e-02,7.057e+00
6.004e-02,6.723e+00
6.164e-02,6.403e+00
6.324e-02,6.096e+00
6.484e-02,5.802e+00
6.644e-02,5.520e+00
6.804e-02,5.250e+00
6.965e-02,4.992e+00
7.125e-02,4.746e+00
7.285e-02,4.510e+00
7.445e-02,4.285e+00
7.605e-02,4.070e+00
7.765e-02,3.865e+00
7.925e-02,3.670e+00
8.085e-02,3.483e+00
8.245e-02,3.306e+00
8.406e-02,3.137e+00
8.566e-02,2.975e+00
8.726e-02,2.822e+00
8.886e-02,2.676e+00
9.046e-02,2.537e+00
9.206e-02,2.405e+00
9.366e-02,2.279e+00
9.526e-02,2.159e+00
9.686e-02,2.046e+00
9.846e-02,1.938e+00
1.001e-01,1.835e+00
1.017e-01,1.738e+00
1.033e-01,1.645e+00
1.049e-01,1.557e+00
1.065e-01,1.474e+00
1.081e-01,1.395e+00
1.097e-01,1.320e+00
1.113e-01,1.248e+00
1.129e-01,1.181e+00
1.145e-01,1.117e+00
1.161e-01,1.056e+00
1.177e-01,9.983e-01
1.193e-01,9.437e-01
1.209e-01,8.920e-01
1.225e-01,8.429e-01
1.241e-01,7.965e-01
1.257e-01,7.525e-01
1.273e-01,7.109e-01
1.289e-01,6.714e-01
1.305e-01,6.341e-01
1.321e-01,5.987e-01
1.337e-01,5.653e-01
1.353e-01,5.336e-01
1.369e-01,5.037e-01
1.385e-01,4.754e-01
1.401e-01,4.486e-01
1.417e-01,4.232e-01
1.433e-01,3.993e-01
1.449e-01,3.766e-01
1.465e-01,3.552e-01
1.481e-01,3.349e-01
1.497e-01,3.158e-01
1.513e-01,2.977e-01
1.529e-01,2.807e-01
1.545e-01,2.645e-01
1.561e-01,2.493e-01
1.577e-01,2.349e-01
1.593e-01,2.213e-01
1.609e-01,2.085e-01
1.625e-01,1.964e-01
1.641e-01,1.850e-01
1.657e-01,1.742e-01
1.673e-01,1.640e-01
1.689e-01,1.544e-01
1.705e-01,1.453e-01
1.721e-01,1.368e-01
1.737e-01,1.287e-01
1.753e-01,1.211e-01
1.769e-01,1.140e-01
1.785e-01,1.072e-01
1.801e-01,1.008e-01
1.817e-01,9.484e-02
1.833e-01,8.918e-02
1.849e-01,8.385e-02
1.865e-01,7.883e-02
1.881e-01,7.410e-02
1.897e-01,6.964e-02
1.913e-01,6.545e-02
1.929e-01,6.150e-02
1.945e-01,5.778e-02
1.961e-01,5.428e-02
1.977e-01,5.098e-02
1.993e-01,4.788e-02
2.009e-01,4.496e-02
2.025e-01,4.221e-02
2.041e-01,3.963e-02
2.057e-01,3.720e-02
2.073e-01,3.491e-02
2.089e-01,3.276e-02
2.105e-01,3.074e-02
2.121e-01,2.884e-02
2.137e-01,2.705e-02
2.153e-01,2.537e-02
2.169e-01,2.379e-02
2.185e-01,2.231e-02
2.201e-01,2.091e-02
2.217e-01,1.960e-02
2.233e-01,1.837e-02
2.249e-01,1.722e-02
2.265e-01,1.614e-02
2.281e-01,1.512e-02
2.298e-01,1.416e-02
2.314e-01,1.326e-02
2.330e-01,1.242e-02
2.346e-01,1.163e-02
2.362e-01,1.089e-02
2.378e-01,1.019e-02
2.394e-01,9.541e-03
2.410e-01,8.929e-03
2.426e-01,8.355e-03
2.442e-01,7.817e-03
2.458e-01,7.312e-03
2.474e-01,6.839e-03
2.490e-01,6.396e-03
2.506e-01,5.981e-03
2.522e-01,5.591e-03
2.538e-01,5.227e-03
2.554e-01,4.885e-03
2.570e-01,4.565e-03
2.586e-01,4.266e-03
2.602e-01,3.985e-03
2.618e-01,3.722e-03
2.634e-01,3.477e-03
2.650e-01,3.247e-03
2.666e-01,3.031e-03
2.682e-01,2.830e-03
2.698e-01,2.641e-03
2.714e-01,2.465e-03
2.730e-01,2.300e-03
2.746e-01,2.146e-03
2.762e-01,2.002e-03
2.778e-01,1.867e-03
2.794e-01,1.741e-03
2.810e-01,1.624e-03
2.826e-01,1.514e-03
2.842e-01,1.411e-03
2.858e-01,1.315e-03
2.874e-01,1.225e-03
2.890e-01,1.142e-03
2.906e-01,1.063e-03
2.922e-01,9.904e-04
2.938e-01,9.223e-04
2.954e-01,8.587e-04
2.970e-01,7.994e-04
2.986e-01,7.441e-04
3.002e-01,6.925e-04
3.018e-01,6.443e-04
3.034e-01,5.995e-04
3.050e-01,5.576e-04
3.066e-01,5.186e-04
3.082e-01,4.822e-04
3.098e-01,4.483e-04
3.114e-01,4.167e-04
3.130e-01,3.873e-04
3.146e-01,3.599e-04
3.162e-01,3.344e-04
3.178e-01,3.106e-04
3.194e-01,2.885e-04
