transmittance,probability_density
1.343e-03,1.833e+00
4.028e-03,4.515e+00
6.714e-03,6.437e+00
9.400e-03,7.850e+00
1.209e-02,8.889e+00
1.477e-02,9.645e+00
1.746e-02,1.018e+01
2.014e-02,1.054e+01
2.283e-02,1.076e+01
2.551e-02,1.087e+01
2.820e-02,1.088e+01
3.088e-02,1.083e+01
3.357e-02,1.071e+01
3.626e-02,1.055e+01
3.894e-02,1.035e+01
4.163e-02,1.012e+01
4.431e-02,9.872e+00
4.700e-02,9.602e+00
4.968e-02,9.320e+00
5.237e-02,9.028e+00
5.506e-02,8.731e+00
5.774e-02,8.430e+00
6.043e-02,8.128e+00
6.311e-02,7.827e+00
6.580e-02,7.529e+00
6.848e-02,7.234e+00
7.117e-02,6.944e+00
7.386e-02,6.660e+00
7.654e-02,6.382e+00
7.923e-02,6.110e+00
8.191e-02,5.846e+00
8.460e-02,5.590e+00
8.728e-02,5.342e+00
8.997e-02,5.101e+00
9.265e-02,4.868e+00
9.534e-02,4.644e+00
9.803e-02,4.427e+00
1.007e-01,4.219e+00
1.034e-01,4.018e+00
1.061e-01,3.826e+00
1.088e-01,3.641e+00
1.115e-01,3.463e+00
1.141e-01,3.293e+00
1.168e-01,3.130e+00
1.195e-01,2.974e+00
1.222e-01,2.824e+00
1.249e-01,2.681e+00
1.276e-01,2.545e+00
1.303e-01,2.414e+00
1.329e-01,2.290e+00
1.356e-01,2.171e+00
1.383e-01,2.058e+00
1.410e-01,1.950e+00
1.437e-01,1.847e+00
1.464e-01,1.749e+00
1.491e-01,1.656e+00
1.517e-01,1.567e+00
1.544e-01,1.483e+00
1.571e-01,1.403e+00
1.598e-01,1.326e+00
1.625e-01,1.254e+00
1.652e-01,1.185e+00
1.679e-01,1.120e+00
1.705e-01,1.058e+00
1.732e-01,9.988e-01
1.759e-01,9.430e-01
1.786e-01,8.900e-01
1.813e-01,8.398e-01
1.840e-01,7.923e-01
1.867e-01,7.472e-01
1.893e-01,7.045e-01
1.920e-01,6.641e-01
1.947e-01,6.258e-01
1.974e-01,5.896e-01
2.001e-01,5.554e-01
2.028e-01,5.230e-01
2.055e-01,4.924e-01
2.081e-01,4.634e-01
2.108e-01,4.361e-01
2.135e-01,4.102e-01
2.162e-01,3.858e-01
2.189e-01,3.628e-01
2.216e-01,3.410e-01
2.243e-01,3.205e-01
2.269e-01,3.011e-01
2.296e-01,2.829e-01
2.323e-01,2.656e-01
2.350e-01,2.494e-01
2.377e-01,2.341e-01
2.404e-01,2.197e-01
2.431e-01,2.061e-01
2.457e-01,1.933e-01
2.484e-01,1.812e-01
2.511e-01,1.699e-01
2.538e-01,1.592e-01
2.565e-01,1.492e-01
2.592e-01,1.397e-01
2.619e-01,1.309e-01
2.645e-01,1.225e-01
2.672e-01,1.147e-01
2.699e-01,1.073e-01
2.726e-01,1.004e-01
2.753e-01,9.387e-02
2.780e-01,8.777e-02
2.807e-01,8.204e-02
2.833e-01,7.666e-02
2.860e-01,7.162e-02
2.887e-01,6.689e-02
2.914e-01,6.246e-02
2.941e-01,5.830e-02
2.968e-01,5.441e-02
2.994e-01,5.076e-02
3.021e-01,4.734e-02
3.048e-01,4.414e-02
3.075e-01,4.115e-02
3.102e-01,3.834e-02
3.129e-01,3.572e-02
3.156e-01,3.327e-02
3.182e-01,3.098e-02
3.209e-01,2.883e-02
3.236e-01,2.683e-02
3.263e-01,2.496e-02
3.290e-01,2.321e-02
3.317e-01,2.158e-02
3.344e-01,2.006e-02
3.370e-01,1.864e-02
3.397e-01,1.731e-02
3.424e-01,1.607e-02
3.451e-01,1.492e-02
3.478e-01,1.385e-02
3.505e-01,1.285e-02
3.532e-01,1.191e-02
3.558e-01,1.104e-02
3.585e-01,1.024e-02
3.612e-01,9.484e-03
3.639e-01,8.784e-03
3.666e-01,8.133e-03
3.693e-01,7.528e-03
3.720e-01,6.966e-03
3.746e-01,6.443e-03
3.773e-01,5.958e-03
3.800e-01,5.507e-03
3.827e-01,5.089e-03
3.854e-01,4.700e-03
3.881e-01,4.340e-03
3.908e-01,4.006e-03
3.934e-01,3.697e-03
3.961e-01,3.410e-03
3.988e-01,3.144e-03
4.015e-01,2.898e-03
4.042e-01,2.670e-03
4.069e-01,2.459e-03
4.096e-01,2.264e-03
4.122e-01,2.084e-03
4.149e-01,1.917e-03
4.176e-01,1.763e-03
4.203e-01,1.621e-03
4.230e-01,1.489e-03
4.257e-01,1.368e-03
4.284e-01,1.256e-03
4.310e-01,1.153e-03
4.337e-01,1.058e-03
4.364e-01,9.701e-04
4.391e-01,8.892e-04
4.418e-01,8.148e-04
4.445e-01,7.463e-04
4.472e-01,6.833e-04
4.498e-01,6.253e-04
4.525e-01,5.720e-04
4.552e-01,5.230e-04
4.579e-01,4.780e-04
4.606e-01,4.366e-04
4.633e-01,3.987e-04
4.660e-01,3.639e-04
4.686e-01,3.320e-04
4.713e-01,3.027e-04
4.740e-01,2.759e-04
4.767e-01,2.514e-04
4.794e-01,2.289e-04
4.821e-01,2.083e-04
4.848e-01,1.895e-04
4.874e-01,1.723e-04
4.901e-01,1.566e-04
4.928e-01,1.422e-04
4.955e-01,1.291e-04
4.982e-01,1.172e-04
5.009e-01,1.063e-04
5.036e-01,9.632e-05
5.062e-01,8.726e-05
5.089e-01,7.901e-05
5.116e-01,7.151e-05
5.143e-01,6.468e-05
5.170e-01,5.847e-05
5.197e-01,5.282e-05
5.224e-01,4.770e-05
5.250e-01,4.305e-05
5.277e-01,3.883e-05
5.304e-01,3.500e-05
5.331e-01,3.153e-05
5.358e-01,2.839e-05
