transmittance,probability_density
6.969e-04,1.085e+01
2.091e-03,1.930e+01
3.484e-03,2.364e+01
4.878e-03,2.606e+01
6.272e-03,2.733e+01
7.665e-03,2.786e+01
9.059e-03,2.789e+01
1.045e-02,2.757e+01
1.185e-02,2.700e+01
1.324e-02,2.626e+01
1.463e-02,2.541e+01
1.603e-02,2.448e+01
1.742e-02,2.351e+01
1.881e-02,2.251e+01
2.021e-02,2.150e+01
2.160e-02,2.049e+01
2.300e-02,1.950e+01
2.439e-02,1.852e+01
2.578e-02,1.758e+01
2.718e-02,1.666e+01
2.857e-02,1.577e+01
2.996e-02,1.492e+01
3.136e-02,1.410e+01
3.275e-02,1.332e+01
3.415e-02,1.257e+01
3.554e-02,1.186e+01
3.693e-02,1.118e+01
3.833e-02,1.053e+01
3.972e-02,9.920e+00
4.111e-02,9.339e+00
4.251e-02,8.788e+00
4.390e-02,8.267e+00
4.530e-02,7.774e+00
4.669e-02,7.308e+00
4.808e-02,6.868e+00
4.948e-02,6.453e+00
5.087e-02,6.061e+00
5.226e-02,5.691e+00
5.366e-02,5.343e+00
5.505e-02,5.014e+00
5.644e-02,4.705e+00
5.784e-02,4.414e+00
5.923e-02,4.140e+00
6.063e-02,3.883e+00
6.202e-02,3.640e+00
6.341e-02,3.412e+00
6.481e-02,3.198e+00
6.620e-02,2.997e+00
6.759e-02,2.808e+00
6.899e-02,2.630e+00
7.038e-02,2.464e+00
7.178e-02,2.307e+00
7.317e-02,2.160e+00
7.456e-02,2.022e+00
7.596e-02,1.893e+00
7.735e-02,1.772e+00
7.874e-02,1.658e+00
8.014e-02,1.551e+00
8.153e-02,1.451e+00
8.293e-02,1.358e+00
8.432e-02,1.270e+00
8.571e-02,1.187e+00
8.711e-02,1.110e+00
8.850e-02,1.038e+00
8.989e-02,9.704e-01
9.129e-02,9.071e-01
9.268e-02,8.477e-01
9.407e-02,7.922e-01
9.547e-02,7.402e-01
9.686e-02,6.915e-01
9.826e-02,6.460e-01
9.965e-02,6.034e-01
1.010e-01,5.635e-01
1.024e-01,5.262e-01
1.038e-01,4.913e-01
1.052e-01,4.587e-01
1.066e-01,4.282e-01
1.080e-01,3.997e-01
1.094e-01,3.730e-01
1.108e-01,3.481e-01
1.122e-01,3.248e-01
1.136e-01,3.030e-01
1.150e-01,2.827e-01
1.164e-01,2.637e-01
1.178e-01,2.459e-01
1.192e-01,2.293e-01
1.206e-01,2.138e-01
1.219e-01,1.994e-01
1.233e-01,1.859e-01
1.247e-01,1.732e-01
1.261e-01,1.615e-01
1.275e-01,1.505e-01
1.289e-01,1.402e-01
1.303e-01,1.306e-01
1.317e-01,1.217e-01
1.331e-01,1.134e-01
1.345e-01,1.056e-01
1.359e-01,9.834e-02
1.373e-01,9.157e-02
1.387e-01,8.526e-02
1.401e-01,7.938e-02
1.415e-01,7.389e-02
1.429e-01,6.878e-02
1.442e-01,6.401e-02
1.456e-01,5.957e-02
1.470e-01,5.542e-02
1.484e-01,5.156e-02
1.498e-01,4.797e-02
1.512e-01,4.462e-02
1.526e-01,4.150e-02
1.540e-01,3.859e-02
1.554e-01,3.588e-02
1.568e-01,3.336e-02
1.582e-01,3.101e-02
1.596e-01,2.882e-02
1.610e-01,2.679e-02
1.624e-01,2.490e-02
1.638e-01,2.313e-02
1.652e-01,2.149e-02
1.665e-01,1.996e-02
1.679e-01,1.854e-02
1.693e-01,1.722e-02
1.707e-01,1.599e-02
1.721e-01,1.485e-02
1.735e-01,1.379e-02
1.749e-01,1.280e-02
1.763e-01,1.188e-02
1.777e-01,1.103e-02
1.791e-01,1.023e-02
1.805e-01,9.494e-03
1.819e-01,8.808e-03
1.833e-01,8.170e-03
1.847e-01,7.578e-03
1.861e-01,7.028e-03
1.875e-01,6.517e-03
1.888e-01,6.043e-03
1.902e-01,5.602e-03
1.916e-01,5.193e-03
1.930e-01,4.813e-03
1.944e-01,4.460e-03
1.958e-01,4.133e-03
1.972e-01,3.829e-03
1.986e-01,3.547e-03
2.000e-01,3.285e-03
2.014e-01,3.043e-03
2.028e-01,2.818e-03
2.042e-01,2.609e-03
2.056e-01,2.415e-03
2.070e-01,2.236e-03
2.084e-01,2.069e-03
2.098e-01,1.915e-03
2.111e-01,1.772e-03
2.125e-01,1.639e-03
2.139e-01,1.517e-03
2.153e-01,1.403e-03
2.167e-01,1.297e-03
2.181e-01,1.200e-03
2.195e-01,1.109e-03
2.209e-01,1.025e-03
2.223e-01,9.477e-04
2.237e-01,8.759e-04
2.251e-01,8.094e-04
2.265e-01,7.478e-04
2.279e-01,6.909e-04
2.293e-01,6.381e-04
2.307e-01,5.894e-04
2.321e-01,5.443e-04
2.334e-01,5.025e-04
2.348e-01,4.639e-04
2.362e-01,4.282e-04
2.376e-01,3.952e-04
2.390e-01,3.647e-04
2.404e-01,3.365e-04
2.418e-01,3.105e-04
2.432e-01,2.864e-04
2.446e-01,2.641e-04
2.460e-01,2.436e-04
2.474e-01,2.246e-04
2.488e-01,2.070e-04
2.502e-01,1.908e-04
2.516e-01,1.759e-04
2.530e-01,1.621e-04
2.544e-01,1.493e-04
2.557e-01,1.376e-04
2.571e-01,1.267e-04
2.585e-01,1.167e-04
2.599e-01,1.074e-04
2.613e-01,9.892e-05
2.627e-01,9.106e-05
2.641e-01,8.381e-05
2.655e-01,7.713e-05
2.669e-01,7.096e-05
2.683e-01,6.529e-05
2.697e-01,6.005e-05
2.711e-01,5.523e-05
2.725e-01,5.079e-05
2.739e-01,4.669e-05
2.753e-01,4.292e-05
2.766e-01,3.945e-05
2.780e-01,3.626e-05
