transmittance,probability_density
1.027e-03,2.410e+00
3.080e-03,5.674e+00
5.133e-03,8.001e+00
7.186e-03,9.718e+00
9.239e-03,1.099e+01
1.129e-02,1.193e+01
1.335e-02,1.261e+01
1.540e-02,1.307e+01
1.745e-02,1.337e+01
1.950e-02,1.353e+01
2.156e-02,1.358e+01
2.361e-02,1.355e+01
2.566e-02,1.344e+01
2.772e-02,1.327e+01
2.977e-02,1.305e+01
3.182e-02,1.279e+01
3.388e-02,1.251e+01
3.593e-02,1.220e+01
3.798e-02,1.187e+01
4.004e-02,1.153e+01
4.209e-02,1.118e+01
4.414e-02,1.082e+01
4.620e-02,1.046e+01
4.825e-02,1.010e+01
5.030e-02,9.746e+00
5.236e-02,9.391e+00
5.441e-02,9.039e+00
5.646e-02,8.694e+00
5.851e-02,8.354e+00
6.057e-02,8.022e+00
6.262e-02,7.698e+00
6.467e-02,7.382e+00
6.673e-02,7.074e+00
6.878e-02,6.776e+00
7.083e-02,6.486e+00
7.289e-02,6.206e+00
7.494e-02,5.934e+00
7.699e-02,5.672e+00
7.905e-02,5.420e+00
8.110e-02,5.176e+00
8.315e-02,4.941e+00
8.521e-02,4.715e+00
8.726e-02,4.498e+00
8.931e-02,4.289e+00
9.137e-02,4.088e+00
9.342e-02,3.896e+00
9.547e-02,3.711e+00
9.752e-02,3.535e+00
9.958e-02,3.365e+00
1.016e-01,3.203e+00
1.037e-01,3.047e+00
1.057e-01,2.899e+00
1.078e-01,2.757e+00
1.098e-01,2.621e+00
1.119e-01,2.491e+00
1.139e-01,2.367e+00
1.160e-01,2.249e+00
1.181e-01,2.136e+00
1.201e-01,2.029e+00
1.222e-01,1.926e+00
1.242e-01,1.828e+00
1.263e-01,1.735e+00
1.283e-01,1.646e+00
1.304e-01,1.561e+00
1.324e-01,1.480e+00
1.345e-01,1.404e+00
1.365e-01,1.331e+00
1.386e-01,1.261e+00
1.406e-01,1.195e+00
1.427e-01,1.132e+00
1.447e-01,1.072e+00
1.468e-01,1.016e+00
1.489e-01,9.616e-01
1.509e-01,9.103e-01
1.530e-01,8.615e-01
1.550e-01,8.153e-01
1.571e-01,7.713e-01
1.591e-01,7.296e-01
1.612e-01,6.901e-01
1.632e-01,6.525e-01
1.653e-01,6.169e-01
1.673e-01,5.831e-01
1.694e-01,5.511e-01
1.714e-01,5.207e-01
1.735e-01,4.920e-01
1.755e-01,4.647e-01
1.776e-01,4.389e-01
1.797e-01,4.144e-01
1.817e-01,3.912e-01
1.838e-01,3.693e-01
1.858e-01,3.485e-01
1.879e-01,3.288e-01
1.899e-01,3.102e-01
1.920e-01,2.926e-01
1.940e-01,2.759e-01
1.961e-01,2.602e-01
1.981e-01,2.453e-01
2.002e-01,2.312e-01
2.022e-01,2.179e-01
2.043e-01,2.053e-01
2.063e-01,1.934e-01
2.084e-01,1.822e-01
2.104e-01,1.715e-01
2.125e-01,1.615e-01
2.146e-01,1.521e-01
2.166e-01,1.431e-01
2.187e-01,1.347e-01
2.207e-01,1.267e-01
2.228e-01,1.192e-01
2.248e-01,1.121e-01
2.269e-01,1.054e-01
2.289e-01,9.915e-02
2.310e-01,9.320e-02
2.330e-01,8.760e-02
2.351e-01,8.232e-02
2.371e-01,7.734e-02
2.392e-01,7.266e-02
2.412e-01,6.824e-02
2.433e-01,6.408e-02
2.454e-01,6.016e-02
2.474e-01,5.647e-02
2.495e-01,5.300e-02
2.515e-01,4.973e-02
2.536e-01,4.666e-02
2.556e-01,4.377e-02
2.577e-01,4.105e-02
2.597e-01,3.849e-02
2.618e-01,3.608e-02
2.638e-01,3.382e-02
2.659e-01,3.169e-02
2.679e-01,2.969e-02
2.700e-01,2.781e-02
2.720e-01,2.605e-02
2.741e-01,2.439e-02
2.761e-01,2.284e-02
2.782e-01,2.138e-02
2.803e-01,2.001e-02
2.823e-01,1.872e-02
2.844e-01,1.751e-02
2.864e-01,1.638e-02
2.885e-01,1.532e-02
2.905e-01,1.432e-02
2.926e-01,1.338e-02
2.946e-01,1.251e-02
2.967e-01,1.169e-02
2.987e-01,1.092e-02
3.008e-01,1.020e-02
3.028e-01,9.522e-03
3.049e-01,8.889e-03
3.069e-01,8.297e-03
3.090e-01,7.743e-03
3.111e-01,7.224e-03
3.131e-01,6.739e-03
3.152e-01,6.285e-03
3.172e-01,5.860e-03
3.193e-01,5.463e-03
3.213e-01,5.091e-03
3.234e-01,4.744e-03
3.254e-01,4.420e-03
3.275e-01,4.117e-03
3.295e-01,3.833e-03
3.316e-01,3.569e-03
3.336e-01,3.322e-03
3.357e-01,3.091e-03
3.377e-01,2.876e-03
3.398e-01,2.675e-03
3.418e-01,2.488e-03
3.439e-01,2.313e-03
3.460e-01,2.150e-03
3.480e-01,1.998e-03
3.501e-01,1.856e-03
3.521e-01,1.724e-03
3.542e-01,1.601e-03
3.562e-01,1.486e-03
3.583e-01,1.380e-03
3.603e-01,1.280e-03
3.624e-01,1.188e-03
3.644e-01,1.102e-03
3.665e-01,1.022e-03
3.685e-01,9.472e-04
3.706e-01,8.779e-04
3.726e-01,8.135e-04
3.747e-01,7.536e-04
3.768e-01,6.980e-04
3.788e-01,6.462e-04
3.809e-01,5.982e-04
3.829e-01,5.536e-04
3.850e-01,5.122e-04
3.870e-01,4.738e-04
3.891e-01,4.381e-04
3.911e-01,4.050e-04
3.932e-01,3.743e-04
3.952e-01,3.459e-04
3.973e-01,3.195e-04
3.993e-01,2.950e-04
4.014e-01,2.724e-04
4.034e-01,2.514e-04
4.055e-01,2.320e-04
4.076e-01,2.140e-04
4.096e-01,1.973e-04
