transmittance,probability_density
1.928e-03,3.764e-02
5.785e-03,2.248e-01
9.642e-03,4.866e-01
1.350e-02,7.835e-01
1.735e-02,1.094e+00
2.121e-02,1.406e+00
2.507e-02,1.710e+00
2.892e-02,2.002e+00
3.278e-02,2.278e+00
3.664e-02,2.537e+00
4.049e-02,2.777e+00
4.435e-02,2.998e+00
4.821e-02,3.200e+00
5.206e-02,3.383e+00
5.592e-02,3.547e+00
5.978e-02,3.694e+00
6.363e-02,3.825e+00
6.749e-02,3.939e+00
7.135e-02,4.037e+00
7.520e-02,4.122e+00
7.906e-02,4.192e+00
8.292e-02,4.250e+00
8.677e-02,4.296e+00
9.063e-02,4.331e+00
9.449e-02,4.355e+00
9.834e-02,4.370e+00
1.022e-01,4.375e+00
1.061e-01,4.372e+00
1.099e-01,4.362e+00
1.138e-01,4.344e+00
1.176e-01,4.320e+00
1.215e-01,4.290e+00
1.253e-01,4.254e+00
1.292e-01,4.214e+00
1.331e-01,4.169e+00
1.369e-01,4.119e+00
1.408e-01,4.066e+00
1.446e-01,4.010e+00
1.485e-01,3.950e+00
1.523e-01,3.888e+00
1.562e-01,3.824e+00
1.600e-01,3.758e+00
1.639e-01,3.689e+00
1.678e-01,3.620e+00
1.716e-01,3.549e+00
1.755e-01,3.477e+00
1.793e-01,3.404e+00
1.832e-01,3.330e+00
1.870e-01,3.256e+00
1.909e-01,3.182e+00
1.948e-01,3.107e+00
1.986e-01,3.033e+00
2.025e-01,2.959e+00
2.063e-01,2.885e+00
2.102e-01,2.811e+00
2.140e-01,2.738e+00
2.179e-01,2.665e+00
2.218e-01,2.593e+00
2.256e-01,2.522e+00
2.295e-01,2.451e+00
2.333e-01,2.382e+00
2.372e-01,2.313e+00
2.410e-01,2.245e+00
2.449e-01,2.178e+00
2.488e-01,2.113e+00
2.526e-01,2.048e+00
2.565e-01,1.985e+00
2.603e-01,1.923e+00
2.642e-01,1.862e+00
2.680e-01,1.802e+00
2.719e-01,1.743e+00
2.757e-01,1.686e+00
2.796e-01,1.630e+00
2.835e-01,1.575e+00
2.873e-01,1.521e+00
2.912e-01,1.469e+00
2.950e-01,1.418e+00
2.989e-01,1.368e+00
3.027e-01,1.319e+00
3.066e-01,1.272e+00
3.105e-01,1.226e+00
3.143e-01,1.181e+00
3.182e-01,1.137e+00
3.220e-01,1.095e+00
3.259e-01,1.054e+00
3.297e-01,1.014e+00
3.336e-01,9.748e-01
3.375e-01,9.370e-01
3.413e-01,9.004e-01
3.452e-01,8.649e-01
3.490e-01,8.305e-01
3.529e-01,7.971e-01
3.567e-01,7.648e-01
3.606e-01,7.336e-01
3.644e-01,7.034e-01
3.683e-01,6.741e-01
3.722e-01,6.458e-01
3.760e-01,6.185e-01
3.799e-01,5.921e-01
3.837e-01,5.666e-01
3.876e-01,5.421e-01
3.914e-01,5.183e-01
3.953e-01,4.955e-01
3.992e-01,4.734e-01
4.030e-01,4.522e-01
4.069e-01,4.317e-01
4.107e-01,4.120e-01
4.146e-01,3.931e-01
4.184e-01,3.748e-01
4.223e-01,3.573e-01
4.262e-01,3.404e-01
4.300e-01,3.242e-01
4.339e-01,3.087e-01
4.377e-01,2.938e-01
4.416e-01,2.794e-01
4.454e-01,2.657e-01
4.493e-01,2.525e-01
4.532e-01,2.399e-01
4.570e-01,2.278e-01
4.609e-01,2.163e-01
4.647e-01,2.052e-01
4.686e-01,1.946e-01
4.724e-01,1.844e-01
4.763e-01,1.747e-01
4.801e-01,1.655e-01
4.840e-01,1.566e-01
4.879e-01,1.482e-01
4.917e-01,1.401e-01
4.956e-01,1.325e-01
4.994e-01,1.251e-01
5.033e-01,1.182e-01
5.071e-01,1.115e-01
5.110e-01,1.052e-01
5.149e-01,9.918e-02
5.187e-01,9.346e-02
5.226e-01,8.802e-02
5.264e-01,8.285e-02
5.303e-01,7.794e-02
5.341e-01,7.328e-02
5.380e-01,6.886e-02
5.419e-01,6.467e-02
5.457e-01,6.070e-02
5.496e-01,5.694e-02
5.534e-01,5.338e-02
5.573e-01,5.002e-02
5.611e-01,4.683e-02
5.650e-01,4.382e-02
5.688e-01,4.098e-02
5.727e-01,3.830e-02
5.766e-01,3.577e-02
5.804e-01,3.338e-02
5.843e-01,3.113e-02
5.881e-01,2.902e-02
5.920e-01,2.702e-02
5.958e-01,2.515e-02
5.997e-01,2.339e-02
6.036e-01,2.174e-02
6.074e-01,2.018e-02
6.113e-01,1.873e-02
6.151e-01,1.736e-02
6.190e-01,1.608e-02
6.228e-01,1.489e-02
6.267e-01,1.377e-02
6.306e-01,1.272e-02
6.344e-01,1.175e-02
6.383e-01,1.084e-02
6.421e-01,9.987e-03
6.460e-01,9.196e-03
6.498e-01,8.459e-03
6.537e-01,7.774e-03
6.576e-01,7.138e-03
6.614e-01,6.546e-03
6.653e-01,5.998e-03
6.691e-01,5.490e-03
6.730e-01,5.020e-03
6.768e-01,4.584e-03
6.807e-01,4.182e-03
6.845e-01,3.811e-03
6.884e-01,3.468e-03
6.923e-01,3.153e-03
6.961e-01,2.863e-03
7.000e-01,2.596e-03
7.038e-01,2.351e-03
7.077e-01,2.126e-03
7.115e-01,1.920e-03
7.154e-01,1.732e-03
7.193e-01,1.560e-03
7.231e-01,1.403e-03
7.270e-01,1.259e-03
7.308e-01,1.129e-03
7.347e-01,1.010e-03
7.385e-01,9.030e-04
7.424e-01,8.055e-04
7.463e-01,7.173e-04
7.501e-01,6.376e-04
7.540e-01,5.657e-04
7.578e-01,5.010e-04
7.617e-01,4.427e-04
7.655e-01,3.905e-04
7.694e-01,3.437e-04
