transmittance,probability_density
2.500e-03,1.784e-04
7.500e-03,4.318e-03
1.250e-02,1.618e-02
1.750e-02,3.632e-02
2.250e-02,6.557e-02
2.750e-02,1.041e-01
3.250e-02,1.516e-01
3.750e-02,2.072e-01
4.250e-02,2.701e-01
4.750e-02,3.394e-01
5.250e-02,4.143e-01
5.750e-02,4.940e-01
6.250e-02,5.776e-01
6.750e-02,6.642e-01
7.250e-02,7.532e-01
7.750e-02,8.437e-01
8.250e-02,9.351e-01
8.750e-02,1.027e+00
9.250e-02,1.118e+00
9.750e-02,1.208e+00
1.025e-01,1.298e+00
1.075e-01,1.385e+00
1.125e-01,1.470e+00
1.175e-01,1.553e+00
1.225e-01,1.634e+00
1.275e-01,1.711e+00
1.325e-01,1.786e+00
1.375e-01,1.857e+00
1.425e-01,1.926e+00
1.475e-01,1.990e+00
1.525e-01,2.052e+00
1.575e-01,2.110e+00
1.625e-01,2.164e+00
1.675e-01,2.215e+00
1.725e-01,2.262e+00
1.775e-01,2.306e+00
1.825e-01,2.347e+00
1.875e-01,2.384e+00
1.925e-01,2.417e+00
1.975e-01,2.448e+00
2.025e-01,2.475e+00
2.075e-01,2.499e+00
2.125e-01,2.520e+00
2.175e-01,2.537e+00
2.225e-01,2.552e+00
2.275e-01,2.564e+00
2.325e-01,2.573e+00
2.375e-01,2.580e+00
2.425e-01,2.584e+00
2.475e-01,2.585e+00
2.525e-01,2.584e+00
2.575e-01,2.581e+00
2.625e-01,2.575e+00
2.675e-01,2.568e+00
2.725e-01,2.558e+00
2.775e-01,2.546e+00
2.825e-01,2.532e+00
2.875e-01,2.517e+00
2.925e-01,2.500e+00
2.975e-01,2.481e+00
3.025e-01,2.460e+00
3.075e-01,2.438e+00
3.125e-01,2.415e+00
3.175e-01,2.391e+00
3.225e-01,2.365e+00
3.275e-01,2.338e+00
3.325e-01,2.310e+00
3.375e-01,2.281e+00
3.425e-01,2.251e+00
3.475e-01,2.220e+00
3.525e-01,2.189e+00
3.575e-01,2.156e+00
3.625e-01,2.123e+00
3.675e-01,2.090e+00
3.725e-01,2.055e+00
3.775e-01,2.021e+00
3.825e-01,1.985e+00
3.875e-01,1.950e+00
3.925e-01,1.914e+00
3.975e-01,1.878e+00
4.025e-01,1.841e+00
4.075e-01,1.805e+00
4.125e-01,1.768e+00
4.175e-01,1.731e+00
4.225e-01,1.694e+00
4.275e-01,1.657e+00
4.325e-01,1.620e+00
4.375e-01,1.583e+00
4.425e-01,1.546e+00
4.475e-01,1.510e+00
4.525e-01,1.473e+00
4.575e-01,1.437e+00
4.625e-01,1.401e+00
4.675e-01,1.365e+00
4.725e-01,1.329e+00
4.775e-01,1.294e+00
4.825e-01,1.258e+00
4.875e-01,1.224e+00
4.925e-01,1.189e+00
4.975e-01,1.155e+00
5.025e-01,1.122e+00
5.075e-01,1.088e+00
5.125e-01,1.056e+00
5.175e-01,1.023e+00
5.225e-01,9.915e-01
5.275e-01,9.601e-01
5.325e-01,9.292e-01
5.375e-01,8.988e-01
5.425e-01,8.689e-01
5.475e-01,8.395e-01
5.525e-01,8.107e-01
5.575e-01,7.823e-01
5.625e-01,7.546e-01
5.675e-01,7.273e-01
5.725e-01,7.007e-01
5.775e-01,6.746e-01
5.825e-01,6.490e-01
5.875e-01,6.241e-01
5.925e-01,5.997e-01
5.975e-01,5.759e-01
6.025e-01,5.526e-01
6.075e-01,5.299e-01
6.125e-01,5.078e-01
6.175e-01,4.863e-01
6.225e-01,4.654e-01
6.275e-01,4.450e-01
6.325e-01,4.252e-01
6.375e-01,4.059e-01
6.425e-01,3.872e-01
6.475e-01,3.691e-01
6.525e-01,3.515e-01
6.575e-01,3.345e-01
6.625e-01,3.180e-01
6.675e-01,3.021e-01
6.725e-01,2.867e-01
6.775e-01,2.718e-01
6.825e-01,2.575e-01
6.875e-01,2.436e-01
6.925e-01,2.303e-01
6.975e-01,2.175e-01
7.025e-01,2.051e-01
7.075e-01,1.933e-01
7.125e-01,1.819e-01
7.175e-01,1.709e-01
7.225e-01,1.605e-01
7.275e-01,1.505e-01
7.325e-01,1.409e-01
7.375e-01,1.317e-01
7.425e-01,1.230e-01
7.475e-01,1.147e-01
7.525e-01,1.068e-01
7.575e-01,9.923e-02
7.625e-01,9.208e-02
7.675e-01,8.529e-02
7.725e-01,7.887e-02
7.775e-01,7.279e-02
7.825e-01,6.705e-02
7.875e-01,6.164e-02
7.925e-01,5.654e-02
7.975e-01,5.175e-02
8.025e-01,4.726e-02
8.075e-01,4.304e-02
8.125e-01,3.911e-02
8.175e-01,3.544e-02
8.225e-01,3.202e-02
8.275e-01,2.884e-02
8.325e-01,2.590e-02
8.375e-01,2.317e-02
8.425e-01,2.066e-02
8.475e-01,1.836e-02
8.525e-01,1.624e-02
8.575e-01,1.430e-02
8.625e-01,1.254e-02
8.675e-01,1.094e-02
8.725e-01,9.495e-03
8.775e-01,8.192e-03
8.825e-01,7.024e-03
8.875e-01,5.982e-03
8.925e-01,5.056e-03
8.975e-01,4.240e-03
9.025e-01,3.524e-03
9.075e-01,2.900e-03
9.125e-01,2.361e-03
9.175e-01,1.898e-03
9.225e-01,1.506e-03
9.275e-01,1.176e-03
9.325e-01,9.028e-04
9.375e-01,6.789e-04
9.425e-01,4.985e-04
9.475e-01,3.560e-04
9.525e-01,2.458e-04
9.575e-01,1.629e-04
9.625e-01,1.026e-04
9.675e-01,6.046e-05
9.725e-01,3.265e-05
9.775e-01,1.559e-05
9.825e-01,6.192e-06
9.875e-01,1.804e-06
9.925e-01,2.794e-07
9.975e-01,5.200e-09
