transmittance,probability_density
2.500e-03,2.497e-03
7.500e-03,2.557e-02
1.250e-02,7.110e-02
1.750e-02,1.398e-01
2.250e-02,2.285e-01
2.750e-02,3.334e-01
3.250e-02,4.507e-01
3.750e-02,5.770e-01
4.250e-02,7.094e-01
4.750e-02,8.457e-01
5.250e-02,9.837e-01
5.750e-02,1.122e+00
6.250e-02,1.258e+00
6.750e-02,1.393e+00
7.250e-02,1.523e+00
7.750e-02,1.650e+00
8.250e-02,1.771e+00
8.750e-02,1.887e+00
9.250e-02,1.997e+00
9.750e-02,2.101e+00
1.025e-01,2.199e+00
1.075e-01,2.291e+00
1.125e-01,2.376e+00
1.175e-01,2.454e+00
1.225e-01,2.527e+00
1.275e-01,2.593e+00
1.325e-01,2.653e+00
1.375e-01,2.707e+00
1.425e-01,2.755e+00
1.475e-01,2.797e+00
1.525e-01,2.834e+00
1.575e-01,2.866e+00
1.625e-01,2.892e+00
1.675e-01,2.914e+00
1.725e-01,2.931e+00
1.775e-01,2.943e+00
1.825e-01,2.951e+00
1.875e-01,2.954e+00
1.925e-01,2.954e+00
1.975e-01,2.950e+00
2.025e-01,2.943e+00
2.075e-01,2.932e+00
2.125e-01,2.919e+00
2.175e-01,2.902e+00
2.225e-01,2.882e+00
2.275e-01,2.860e+00
2.325e-01,2.835e+00
2.375e-01,2.808e+00
2.425e-01,2.779e+00
2.475e-01,2.748e+00
2.525e-01,2.716e+00
2.575e-01,2.681e+00
2.625e-01,2.645e+00
2.675e-01,2.608e+00
2.725e-01,2.569e+00
2.775e-01,2.529e+00
2.825e-01,2.488e+00
2.875e-01,2.446e+00
2.925e-01,2.403e+00
2.975e-01,2.360e+00
3.025e-01,2.316e+00
3.075e-01,2.271e+00
3.125e-01,2.226e+00
3.175e-01,2.180e+00
3.225e-01,2.135e+00
3.275e-01,2.089e+00
3.325e-01,2.042e+00
3.375e-01,1.996e+00
3.425e-01,1.950e+00
3.475e-01,1.904e+00
3.525e-01,1.858e+00
3.575e-01,1.812e+00
3.625e-01,1.766e+00
3.675e-01,1.720e+00
3.725e-01,1.675e+00
3.775e-01,1.630e+00
3.825e-01,1.586e+00
3.875e-01,1.542e+00
3.925e-01,1.498e+00
3.975e-01,1.455e+00
4.025e-01,1.413e+00
4.075e-01,1.371e+00
4.125e-01,1.329e+00
4.175e-01,1.288e+00
4.225e-01,1.248e+00
4.275e-01,1.209e+00
4.325e-01,1.170e+00
4.375e-01,1.131e+00
4.425e-01,1.094e+00
4.475e-01,1.057e+00
4.525e-01,1.021e+00
4.575e-01,9.855e-01
4.625e-01,9.508e-01
4.675e-01,9.168e-01
4.725e-01,8.836e-01
4.775e-01,8.511e-01
4.825e-01,8.193e-01
4.875e-01,7.883e-01
4.925e-01,7.581e-01
4.975e-01,7.286e-01
5.025e-01,6.998e-01
5.075e-01,6.718e-01
5.125e-01,6.446e-01
5.175e-01,6.181e-01
5.225e-01,5.923e-01
5.275e-01,5.672e-01
5.325e-01,5.429e-01
5.375e-01,5.193e-01
5.425e-01,4.964e-01
5.475e-01,4.742e-01
5.525e-01,4.527e-01
5.575e-01,4.319e-01
5.625e-01,4.118e-01
5.675e-01,3.923e-01
5.725e-01,3.735e-01
5.775e-01,3.553e-01
5.825e-01,3.378e-01
5.875e-01,3.209e-01
5.925e-01,3.046e-01
5.975e-01,2.890e-01
6.025e-01,2.739e-01
6.075e-01,2.594e-01
6.125e-01,2.454e-01
6.175e-01,2.320e-01
6.225e-01,2.192e-01
6.275e-01,2.069e-01
6.325e-01,1.951e-01
6.375e-01,1.838e-01
6.425e-01,1.730e-01
6.475e-01,1.626e-01
6.525e-01,1.528e-01
6.575e-01,1.434e-01
6.625e-01,1.344e-01
6.675e-01,1.258e-01
6.725e-01,1.177e-01
6.775e-01,1.100e-01
6.825e-01,1.026e-01
6.875e-01,9.565e-02
6.925e-01,8.904e-02
6.975e-01,8.278e-02
7.025e-01,7.687e-02
7.075e-01,7.127e-02
7.125e-01,6.600e-02
7.175e-01,6.102e-02
7.225e-01,5.633e-02
7.275e-01,5.193e-02
7.325e-01,4.779e-02
7.375e-01,4.391e-02
7.425e-01,4.027e-02
7.475e-01,3.687e-02
7.525e-01,3.369e-02
7.575e-01,3.073e-02
7.625e-01,2.797e-02
7.675e-01,2.541e-02
7.725e-01,2.303e-02
7.775e-01,2.082e-02
7.825e-01,1.879e-02
7.875e-01,1.691e-02
7.925e-01,1.517e-02
7.975e-01,1.358e-02
8.025e-01,1.212e-02
8.075e-01,1.079e-02
8.125e-01,9.571e-03
8.175e-01,8.462e-03
8.225e-01,7.456e-03
8.275e-01,6.545e-03
8.325e-01,5.723e-03
8.375e-01,4.983e-03
8.425e-01,4.320e-03
8.475e-01,3.728e-03
8.525e-01,3.200e-03
8.575e-01,2.733e-03
8.625e-01,2.321e-03
8.675e-01,1.959e-03
8.725e-01,1.642e-03
8.775e-01,1.367e-03
8.825e-01,1.130e-03
8.875e-01,9.254e-04
8.925e-01,7.513e-04
8.975e-01,6.038e-04
9.025e-01,4.801e-04
9.075e-01,3.771e-04
9.125e-01,2.922e-04
9.175e-01,2.231e-04
9.225e-01,1.675e-04
9.275e-01,1.233e-04
9.325e-01,8.886e-05
9.375e-01,6.244e-05
9.425e-01,4.261e-05
9.475e-01,2.809e-05
9.525e-01,1.776e-05
9.575e-01,1.068e-05
9.625e-01,6.024e-06
9.675e-01,3.133e-06
9.725e-01,1.462e-06
9.775e-01,5.857e-07
9.825e-01,1.867e-07
9.875e-01,4.055e-08
9.925e-01,4.021e-09
9.975e-01,2.869e-11
