transmittance,probability_density
2.500e-03,4.837e-04
7.500e-03,8.298e-03
1.250e-02,3.029e-02
1.750e-02,6.785e-02
2.250e-02,1.203e-01
2.750e-02,1.861e-01
3.250e-02,2.634e-01
3.750e-02,3.504e-01
4.250e-02,4.450e-01
4.750e-02,5.458e-01
5.250e-02,6.510e-01
5.750e-02,7.594e-01
6.250e-02,8.696e-01
6.750e-02,9.807e-01
7.250e-02,1.092e+00
7.750e-02,1.202e+00
8.250e-02,1.310e+00
8.750e-02,1.416e+00
9.250e-02,1.520e+00
9.750e-02,1.620e+00
1.025e-01,1.716e+00
1.075e-01,1.809e+00
1.125e-01,1.898e+00
1.175e-01,1.982e+00
1.225e-01,2.062e+00
1.275e-01,2.137e+00
1.325e-01,2.208e+00
1.375e-01,2.274e+00
1.425e-01,2.336e+00
1.475e-01,2.393e+00
1.525e-01,2.445e+00
1.575e-01,2.493e+00
1.625e-01,2.536e+00
1.675e-01,2.575e+00
1.725e-01,2.610e+00
1.775e-01,2.641e+00
1.825e-01,2.668e+00
1.875e-01,2.690e+00
1.925e-01,2.709e+00
1.975e-01,2.725e+00
2.025e-01,2.736e+00
2.075e-01,2.745e+00
2.125e-01,2.750e+00
2.175e-01,2.752e+00
2.225e-01,2.751e+00
2.275e-01,2.747e+00
2.325e-01,2.740e+00
2.375e-01,2.731e+00
2.425e-01,2.719e+00
2.475e-01,2.705e+00
2.525e-01,2.688e+00
2.575e-01,2.670e+00
2.625e-01,2.649e+00
2.675e-01,2.626e+00
2.725e-01,2.602e+00
2.775e-01,2.576e+00
2.825e-01,2.549e+00
2.875e-01,2.520e+00
2.925e-01,2.490e+00
2.975e-01,2.458e+00
3.025e-01,2.425e+00
3.075e-01,2.391e+00
3.125e-01,2.356e+00
3.175e-01,2.321e+00
3.225e-01,2.284e+00
3.275e-01,2.247e+00
3.325e-01,2.209e+00
3.375e-01,2.170e+00
3.425e-01,2.131e+00
3.475e-01,2.092e+00
3.525e-01,2.052e+00
3.575e-01,2.011e+00
3.625e-01,1.971e+00
3.675e-01,1.930e+00
3.725e-01,1.889e+00
3.775e-01,1.848e+00
3.825e-01,1.807e+00
3.875e-01,1.766e+00
3.925e-01,1.725e+00
3.975e-01,1.685e+00
4.025e-01,1.644e+00
4.075e-01,1.603e+00
4.125e-01,1.563e+00
4.175e-01,1.523e+00
4.225e-01,1.483e+00
4.275e-01,1.444e+00
4.325e-01,1.404e+00
4.375e-01,1.366e+00
4.425e-01,1.327e+00
4.475e-01,1.289e+00
4.525e-01,1.252e+00
4.575e-01,1.215e+00
4.625e-01,1.178e+00
4.675e-01,1.142e+00
4.725e-01,1.107e+00
4.775e-01,1.072e+00
4.825e-01,1.038e+00
4.875e-01,1.004e+00
4.925e-01,9.708e-01
4.975e-01,9.382e-01
5.025e-01,9.062e-01
5.075e-01,8.748e-01
5.125e-01,8.440e-01
5.175e-01,8.139e-01
5.225e-01,7.844e-01
5.275e-01,7.555e-01
5.325e-01,7.273e-01
5.375e-01,6.997e-01
5.425e-01,6.728e-01
5.475e-01,6.465e-01
5.525e-01,6.209e-01
5.575e-01,5.959e-01
5.625e-01,5.715e-01
5.675e-01,5.478e-01
5.725e-01,5.248e-01
5.775e-01,5.024e-01
5.825e-01,4.806e-01
5.875e-01,4.594e-01
5.925e-01,4.389e-01
5.975e-01,4.190e-01
6.025e-01,3.997e-01
6.075e-01,3.810e-01
6.125e-01,3.629e-01
6.175e-01,3.454e-01
6.225e-01,3.285e-01
6.275e-01,3.121e-01
6.325e-01,2.964e-01
6.375e-01,2.811e-01
6.425e-01,2.665e-01
6.475e-01,2.524e-01
6.525e-01,2.388e-01
6.575e-01,2.257e-01
6.625e-01,2.131e-01
6.675e-01,2.011e-01
6.725e-01,1.895e-01
6.775e-01,1.784e-01
6.825e-01,1.678e-01
6.875e-01,1.577e-01
6.925e-01,1.480e-01
6.975e-01,1.387e-01
7.025e-01,1.298e-01
7.075e-01,1.214e-01
7.125e-01,1.134e-01
7.175e-01,1.057e-01
7.225e-01,9.848e-02
7.275e-01,9.159e-02
7.325e-01,8.506e-02
7.375e-01,7.888e-02
7.425e-01,7.303e-02
7.475e-01,6.750e-02
7.525e-01,6.229e-02
7.575e-01,5.738e-02
7.625e-01,5.277e-02
7.675e-01,4.843e-02
7.725e-01,4.436e-02
7.775e-01,4.055e-02
7.825e-01,3.698e-02
7.875e-01,3.366e-02
7.925e-01,3.056e-02
7.975e-01,2.768e-02
8.025e-01,2.500e-02
8.075e-01,2.253e-02
8.125e-01,2.024e-02
8.175e-01,1.813e-02
8.225e-01,1.619e-02
8.275e-01,1.440e-02
8.325e-01,1.277e-02
8.375e-01,1.128e-02
8.425e-01,9.929e-03
8.475e-01,8.700e-03
8.525e-01,7.590e-03
8.575e-01,6.589e-03
8.625e-01,5.691e-03
8.675e-01,4.888e-03
8.725e-01,4.174e-03
8.775e-01,3.541e-03
8.825e-01,2.984e-03
8.875e-01,2.495e-03
8.925e-01,2.070e-03
8.975e-01,1.701e-03
9.025e-01,1.385e-03
9.075e-01,1.115e-03
9.125e-01,8.870e-04
9.175e-01,6.962e-04
9.225e-01,5.381e-04
9.275e-01,4.089e-04
9.325e-01,3.047e-04
9.375e-01,2.220e-04
9.425e-01,1.575e-04
9.475e-01,1.083e-04
9.525e-01,7.178e-05
9.575e-01,4.545e-05
9.625e-01,2.718e-05
9.675e-01,1.511e-05
9.725e-01,7.623e-06
9.775e-01,3.354e-06
9.825e-01,1.202e-06
9.875e-01,3.052e-07
9.925e-01,3.838e-08
9.975e-01,4.564e-10
