transmittance,probability_density
1.925e-03,1.319e-01
5.774e-03,5.896e-01
9.624e-03,1.107e+00
1.347e-02,1.622e+00
1.732e-02,2.109e+00
2.117e-02,2.557e+00
2.502e-02,2.963e+00
2.887e-02,3.327e+00
3.272e-02,3.648e+00
3.657e-02,3.930e+00
4.042e-02,4.175e+00
4.427e-02,4.385e+00
4.812e-02,4.563e+00
5.197e-02,4.712e+00
5.582e-02,4.833e+00
5.967e-02,4.930e+00
6.352e-02,5.005e+00
6.737e-02,5.059e+00
7.121e-02,5.094e+00
7.506e-02,5.113e+00
7.891e-02,5.116e+00
8.276e-02,5.106e+00
8.661e-02,5.084e+00
9.046e-02,5.051e+00
9.431e-02,5.008e+00
9.816e-02,4.956e+00
1.020e-01,4.897e+00
1.059e-01,4.831e+00
1.097e-01,4.759e+00
1.136e-01,4.682e+00
1.174e-01,4.600e+00
1.213e-01,4.514e+00
1.251e-01,4.426e+00
1.290e-01,4.334e+00
1.328e-01,4.240e+00
1.367e-01,4.145e+00
1.405e-01,4.048e+00
1.444e-01,3.950e+00
1.482e-01,3.851e+00
1.521e-01,3.752e+00
1.559e-01,3.653e+00
1.598e-01,3.554e+00
1.636e-01,3.456e+00
1.675e-01,3.358e+00
1.713e-01,3.261e+00
1.751e-01,3.164e+00
1.790e-01,3.069e+00
1.828e-01,2.975e+00
1.867e-01,2.882e+00
1.905e-01,2.791e+00
1.944e-01,2.701e+00
1.982e-01,2.613e+00
2.021e-01,2.527e+00
2.059e-01,2.442e+00
2.098e-01,2.359e+00
2.136e-01,2.278e+00
2.175e-01,2.198e+00
2.213e-01,2.121e+00
2.252e-01,2.045e+00
2.290e-01,1.971e+00
2.329e-01,1.899e+00
2.367e-01,1.829e+00
2.406e-01,1.761e+00
2.444e-01,1.694e+00
2.483e-01,1.630e+00
2.521e-01,1.567e+00
2.560e-01,1.506e+00
2.598e-01,1.447e+00
2.637e-01,1.390e+00
2.675e-01,1.334e+00
2.714e-01,1.281e+00
2.752e-01,1.229e+00
2.791e-01,1.178e+00
2.829e-01,1.129e+00
2.868e-01,1.082e+00
2.906e-01,1.037e+00
2.945e-01,9.927e-01
2.983e-01,9.503e-01
3.022e-01,9.093e-01
3.060e-01,8.697e-01
3.099e-01,8.316e-01
3.137e-01,7.949e-01
3.176e-01,7.595e-01
3.214e-01,7.254e-01
3.253e-01,6.926e-01
3.291e-01,6.610e-01
3.330e-01,6.306e-01
3.368e-01,6.015e-01
3.407e-01,5.734e-01
3.445e-01,5.465e-01
3.484e-01,5.206e-01
3.522e-01,4.957e-01
3.561e-01,4.719e-01
3.599e-01,4.491e-01
3.638e-01,4.272e-01
3.676e-01,4.062e-01
3.715e-01,3.860e-01
3.753e-01,3.668e-01
3.792e-01,3.484e-01
3.830e-01,3.307e-01
3.869e-01,3.138e-01
3.907e-01,2.977e-01
3.946e-01,2.823e-01
3.984e-01,2.676e-01
4.023e-01,2.535e-01
4.061e-01,2.401e-01
4.100e-01,2.273e-01
4.138e-01,2.151e-01
4.177e-01,2.035e-01
4.215e-01,1.924e-01
4.254e-01,1.818e-01
4.292e-01,1.717e-01
4.331e-01,1.622e-01
4.369e-01,1.531e-01
4.408e-01,1.444e-01
4.446e-01,1.362e-01
4.485e-01,1.283e-01
4.523e-01,1.209e-01
4.562e-01,1.139e-01
4.600e-01,1.072e-01
4.639e-01,1.008e-01
4.677e-01,9.479e-02
4.716e-01,8.909e-02
4.754e-01,8.369e-02
4.793e-01,7.858e-02
4.831e-01,7.374e-02
4.870e-01,6.916e-02
4.908e-01,6.484e-02
4.947e-01,6.075e-02
4.985e-01,5.689e-02
5.024e-01,5.324e-02
5.062e-01,4.981e-02
5.101e-01,4.656e-02
5.139e-01,4.351e-02
5.178e-01,4.063e-02
5.216e-01,3.792e-02
5.254e-01,3.537e-02
5.293e-01,3.297e-02
5.331e-01,3.071e-02
5.370e-01,2.859e-02
5.408e-01,2.661e-02
5.447e-01,2.474e-02
5.485e-01,2.299e-02
5.524e-01,2.135e-02
5.562e-01,1.981e-02
5.601e-01,1.837e-02
5.639e-01,1.703e-02
5.678e-01,1.577e-02
5.716e-01,1.459e-02
5.755e-01,1.349e-02
5.793e-01,1.247e-02
5.832e-01,1.151e-02
5.870e-01,1.062e-02
5.909e-01,9.793e-03
5.947e-01,9.021e-03
5.986e-01,8.304e-03
6.024e-01,7.637e-03
6.063e-01,7.018e-03
6.101e-01,6.443e-03
6.140e-01,5.911e-03
6.178e-01,5.417e-03
6.217e-01,4.961e-03
6.255e-01,4.538e-03
6.294e-01,4.148e-03
6.332e-01,3.788e-03
6.371e-01,3.455e-03
6.409e-01,3.149e-03
6.448e-01,2.866e-03
6.486e-01,2.607e-03
6.525e-01,2.368e-03
6.563e-01,2.149e-03
6.602e-01,1.948e-03
6.640e-01,1.764e-03
6.679e-01,1.595e-03
6.717e-01,1.441e-03
6.756e-01,1.300e-03
6.794e-01,1.171e-03
6.833e-01,1.054e-03
6.871e-01,9.474e-04
6.910e-01,8.503e-04
6.948e-01,7.621e-04
6.987e-01,6.822e-04
7.025e-01,6.097e-04
7.064e-01,5.441e-04
7.102e-01,4.849e-04
7.141e-01,4.314e-04
7.179e-01,3.832e-04
7.218e-01,3.398e-04
7.256e-01,3.009e-04
7.295e-01,2.659e-04
7.333e-01,2.346e-04
7.372e-01,2.066e-04
7.410e-01,1.816e-04
7.449e-01,1.593e-04
7.487e-01,1.395e-04
7.526e-01,1.218e-04
7.564e-01,1.062e-04
7.603e-01,9.241e-05
7.641e-01,8.021e-05
7.680e-01,6.946e-05
