transmittance,probability_density
2.022e-03,1.515e-02
6.065e-03,1.120e-01
1.011e-02,2.676e-01
1.415e-02,4.599e-01
1.819e-02,6.743e-01
2.224e-02,9.007e-01
2.628e-02,1.132e+00
3.032e-02,1.362e+00
3.437e-02,1.587e+00
3.841e-02,1.806e+00
4.245e-02,2.015e+00
4.650e-02,2.214e+00
5.054e-02,2.401e+00
5.458e-02,2.576e+00
5.862e-02,2.740e+00
6.267e-02,2.891e+00
6.671e-02,3.029e+00
7.075e-02,3.156e+00
7.480e-02,3.271e+00
7.884e-02,3.374e+00
8.288e-02,3.466e+00
8.693e-02,3.548e+00
9.097e-02,3.619e+00
9.501e-02,3.681e+00
9.905e-02,3.733e+00
1.031e-01,3.776e+00
1.071e-01,3.811e+00
1.112e-01,3.837e+00
1.152e-01,3.857e+00
1.193e-01,3.869e+00
1.233e-01,3.874e+00
1.274e-01,3.874e+00
1.314e-01,3.867e+00
1.354e-01,3.855e+00
1.395e-01,3.838e+00
1.435e-01,3.816e+00
1.476e-01,3.790e+00
1.516e-01,3.760e+00
1.557e-01,3.726e+00
1.597e-01,3.688e+00
1.637e-01,3.648e+00
1.678e-01,3.604e+00
1.718e-01,3.558e+00
1.759e-01,3.510e+00
1.799e-01,3.459e+00
1.840e-01,3.406e+00
1.880e-01,3.352e+00
1.920e-01,3.296e+00
1.961e-01,3.239e+00
2.001e-01,3.181e+00
2.042e-01,3.122e+00
2.082e-01,3.062e+00
2.123e-01,3.001e+00
2.163e-01,2.940e+00
2.203e-01,2.878e+00
2.244e-01,2.816e+00
2.284e-01,2.754e+00
2.325e-01,2.692e+00
2.365e-01,2.630e+00
2.406e-01,2.568e+00
2.446e-01,2.506e+00
2.486e-01,2.444e+00
2.527e-01,2.383e+00
2.567e-01,2.322e+00
2.608e-01,2.262e+00
2.648e-01,2.202e+00
2.689e-01,2.143e+00
2.729e-01,2.085e+00
2.769e-01,2.027e+00
2.810e-01,1.970e+00
2.850e-01,1.914e+00
2.891e-01,1.858e+00
2.931e-01,1.804e+00
2.972e-01,1.750e+00
3.012e-01,1.698e+00
3.053e-01,1.646e+00
3.093e-01,1.595e+00
3.133e-01,1.545e+00
3.174e-01,1.496e+00
3.214e-01,1.448e+00
3.255e-01,1.401e+00
3.295e-01,1.355e+00
3.336e-01,1.310e+00
3.376e-01,1.266e+00
3.416e-01,1.223e+00
3.457e-01,1.181e+00
3.497e-01,1.140e+00
3.538e-01,1.100e+00
3.578e-01,1.061e+00
3.619e-01,1.023e+00
3.659e-01,9.858e-01
3.699e-01,9.497e-01
3.740e-01,9.146e-01
3.780e-01,8.805e-01
3.821e-01,8.473e-01
3.861e-01,8.150e-01
3.902e-01,7.836e-01
3.942e-01,7.532e-01
3.982e-01,7.236e-01
4.023e-01,6.950e-01
4.063e-01,6.672e-01
4.104e-01,6.402e-01
4.144e-01,6.141e-01
4.185e-01,5.888e-01
4.225e-01,5.644e-01
4.265e-01,5.407e-01
4.306e-01,5.178e-01
4.346e-01,4.957e-01
4.387e-01,4.743e-01
4.427e-01,4.536e-01
4.468e-01,4.337e-01
4.508e-01,4.144e-01
4.548e-01,3.959e-01
4.589e-01,3.780e-01
4.629e-01,3.607e-01
4.670e-01,3.441e-01
4.710e-01,3.281e-01
4.751e-01,3.127e-01
4.791e-01,2.979e-01
4.831e-01,2.837e-01
4.872e-01,2.700e-01
4.912e-01,2.568e-01
4.953e-01,2.442e-01
4.993e-01,2.321e-01
5.034e-01,2.204e-01
5.074e-01,2.093e-01
5.114e-01,1.986e-01
5.155e-01,1.883e-01
5.195e-01,1.785e-01
5.236e-01,1.692e-01
5.276e-01,1.602e-01
5.317e-01,1.516e-01
5.357e-01,1.434e-01
5.397e-01,1.356e-01
5.438e-01,1.281e-01
5.478e-01,1.209e-01
5.519e-01,1.141e-01
5.559e-01,1.076e-01
5.600e-01,1.015e-01
5.640e-01,9.558e-02
5.680e-01,8.998e-02
5.721e-01,8.466e-02
5.761e-01,7.960e-02
5.802e-01,7.479e-02
5.842e-01,7.023e-02
5.883e-01,6.590e-02
5.923e-01,6.179e-02
5.963e-01,5.790e-02
6.004e-01,5.422e-02
6.044e-01,5.073e-02
6.085e-01,4.744e-02
6.125e-01,4.432e-02
6.166e-01,4.137e-02
6.206e-01,3.859e-02
6.247e-01,3.597e-02
6.287e-01,3.350e-02
6.327e-01,3.118e-02
6.368e-01,2.899e-02
6.408e-01,2.693e-02
6.449e-01,2.499e-02
6.489e-01,2.317e-02
6.530e-01,2.147e-02
6.570e-01,1.987e-02
6.610e-01,1.837e-02
6.651e-01,1.697e-02
6.691e-01,1.566e-02
6.732e-01,1.444e-02
6.772e-01,1.329e-02
6.813e-01,1.223e-02
6.853e-01,1.123e-02
6.893e-01,1.031e-02
6.934e-01,9.452e-03
6.974e-01,8.654e-03
7.015e-01,7.913e-03
7.055e-01,7.227e-03
7.096e-01,6.592e-03
7.136e-01,6.005e-03
7.176e-01,5.462e-03
7.217e-01,4.962e-03
7.257e-01,4.500e-03
7.298e-01,4.076e-03
7.338e-01,3.686e-03
7.379e-01,3.328e-03
7.419e-01,3.000e-03
7.459e-01,2.699e-03
7.500e-01,2.425e-03
7.540e-01,2.174e-03
7.581e-01,1.946e-03
7.621e-01,1.739e-03
7.662e-01,1.550e-03
7.702e-01,1.379e-03
7.742e-01,1.225e-03
7.783e-01,1.085e-03
7.823e-01,9.589e-04
7.864e-01,8.456e-04
7.904e-01,7.439e-04
7.945e-01,6.528e-04
7.985e-01,5.713e-04
8.025e-01,4.986e-04
8.066e-01,4.339e-04
