transmittance,probability_density
1.681e-03,5.309e-01
5.042e-03,1.718e+00
8.404e-03,2.781e+00
1.177e-02,3.687e+00
1.513e-02,4.447e+00
1.849e-02,5.077e+00
2.185e-02,5.595e+00
2.521e-02,6.014e+00
2.857e-02,6.349e+00
3.194e-02,6.610e+00
3.530e-02,6.806e+00
3.866e-02,6.948e+00
4.202e-02,7.042e+00
4.538e-02,7.094e+00
4.874e-02,7.110e+00
5.210e-02,7.095e+00
5.547e-02,7.054e+00
5.883e-02,6.990e+00
6.219e-02,6.907e+00
6.555e-02,6.806e+00
6.891e-02,6.692e+00
7.227e-02,6.567e+00
7.564e-02,6.431e+00
7.900e-02,6.288e+00
8.236e-02,6.139e+00
8.572e-02,5.984e+00
8.908e-02,5.826e+00
9.244e-02,5.665e+00
9.581e-02,5.502e+00
9.917e-02,5.338e+00
1.025e-01,5.175e+00
1.059e-01,5.011e+00
1.093e-01,4.849e+00
1.126e-01,4.688e+00
1.160e-01,4.529e+00
1.193e-01,4.372e+00
1.227e-01,4.217e+00
1.261e-01,4.066e+00
1.294e-01,3.917e+00
1.328e-01,3.771e+00
1.361e-01,3.629e+00
1.395e-01,3.490e+00
1.429e-01,3.355e+00
1.462e-01,3.223e+00
1.496e-01,3.095e+00
1.530e-01,2.971e+00
1.563e-01,2.850e+00
1.597e-01,2.733e+00
1.630e-01,2.619e+00
1.664e-01,2.509e+00
1.698e-01,2.403e+00
1.731e-01,2.300e+00
1.765e-01,2.201e+00
1.798e-01,2.105e+00
1.832e-01,2.013e+00
1.866e-01,1.924e+00
1.899e-01,1.838e+00
1.933e-01,1.755e+00
1.967e-01,1.676e+00
2.000e-01,1.599e+00
2.034e-01,1.526e+00
2.067e-01,1.455e+00
2.101e-01,1.387e+00
2.135e-01,1.322e+00
2.168e-01,1.259e+00
2.202e-01,1.199e+00
2.235e-01,1.142e+00
2.269e-01,1.087e+00
2.303e-01,1.034e+00
2.336e-01,9.835e-01
2.370e-01,9.351e-01
2.404e-01,8.888e-01
2.437e-01,8.445e-01
2.471e-01,8.022e-01
2.504e-01,7.617e-01
2.538e-01,7.231e-01
2.572e-01,6.862e-01
2.605e-01,6.509e-01
2.639e-01,6.173e-01
2.672e-01,5.852e-01
2.706e-01,5.547e-01
2.740e-01,5.255e-01
2.773e-01,4.977e-01
2.807e-01,4.713e-01
2.841e-01,4.461e-01
2.874e-01,4.221e-01
2.908e-01,3.992e-01
2.941e-01,3.775e-01
2.975e-01,3.569e-01
3.009e-01,3.372e-01
3.042e-01,3.186e-01
3.076e-01,3.009e-01
3.109e-01,2.840e-01
3.143e-01,2.681e-01
3.177e-01,2.529e-01
3.210e-01,2.385e-01
3.244e-01,2.249e-01
3.278e-01,2.119e-01
3.311e-01,1.997e-01
3.345e-01,1.881e-01
3.378e-01,1.771e-01
3.412e-01,1.666e-01
3.446e-01,1.568e-01
3.479e-01,1.475e-01
3.513e-01,1.386e-01
3.546e-01,1.303e-01
3.580e-01,1.224e-01
3.614e-01,1.150e-01
3.647e-01,1.079e-01
3.681e-01,1.013e-01
3.715e-01,9.504e-02
3.748e-01,8.913e-02
3.782e-01,8.355e-02
3.815e-01,7.829e-02
3.849e-01,7.334e-02
3.883e-01,6.867e-02
3.916e-01,6.428e-02
3.950e-01,6.014e-02
3.983e-01,5.625e-02
4.017e-01,5.259e-02
4.051e-01,4.914e-02
4.084e-01,4.590e-02
4.118e-01,4.286e-02
4.152e-01,4.001e-02
4.185e-01,3.733e-02
4.219e-01,3.481e-02
4.252e-01,3.245e-02
4.286e-01,3.023e-02
4.320e-01,2.816e-02
4.353e-01,2.621e-02
4.387e-01,2.439e-02
4.421e-01,2.269e-02
4.454e-01,2.109e-02
4.488e-01,1.960e-02
4.521e-01,1.821e-02
4.555e-01,1.690e-02
4.589e-01,1.568e-02
4.622e-01,1.455e-02
4.656e-01,1.349e-02
4.689e-01,1.250e-02
4.723e-01,1.157e-02
4.757e-01,1.071e-02
4.790e-01,9.912e-03
4.824e-01,9.165e-03
4.858e-01,8.471e-03
4.891e-01,7.825e-03
4.925e-01,7.224e-03
4.958e-01,6.666e-03
4.992e-01,6.148e-03
5.026e-01,5.666e-03
5.059e-01,5.220e-03
5.093e-01,4.806e-03
5.126e-01,4.422e-03
5.160e-01,4.067e-03
5.194e-01,3.737e-03
5.227e-01,3.433e-03
5.261e-01,3.151e-03
5.295e-01,2.891e-03
5.328e-01,2.650e-03
5.362e-01,2.428e-03
5.395e-01,2.223e-03
5.429e-01,2.034e-03
5.463e-01,1.860e-03
5.496e-01,1.700e-03
5.530e-01,1.552e-03
5.563e-01,1.417e-03
5.597e-01,1.292e-03
5.631e-01,1.177e-03
5.664e-01,1.072e-03
5.698e-01,9.753e-04
5.732e-01,8.868e-04
5.765e-01,8.057e-04
5.799e-01,7.314e-04
5.832e-01,6.635e-04
5.866e-01,6.014e-04
5.900e-01,5.447e-04
5.933e-01,4.929e-04
5.967e-01,4.457e-04
6.000e-01,4.026e-04
6.034e-01,3.634e-04
6.068e-01,3.278e-04
6.101e-01,2.953e-04
6.135e-01,2.659e-04
6.169e-01,2.391e-04
6.202e-01,2.149e-04
6.236e-01,1.929e-04
6.269e-01,1.730e-04
6.303e-01,1.550e-04
6.337e-01,1.387e-04
6.370e-01,1.240e-04
6.404e-01,1.108e-04
6.437e-01,9.885e-05
6.471e-01,8.810e-05
6.505e-01,7.844e-05
6.538e-01,6.976e-05
6.572e-01,6.196e-05
6.606e-01,5.498e-05
6.639e-01,4.872e-05
6.673e-01,4.312e-05
6.706e-01,3.812e-05
