transmittance,probability_density
2.500e-03,1.542e-09
7.500e-03,4.512e-06
1.250e-02,1.794e-04
1.750e-02,6.408e-04
2.250e-02,7.156e-04
2.750e-02,4.854e-04
3.250e-02,4.658e-04
3.750e-02,7.838e-04
4.250e-02,1.402e-03
4.750e-02,2.315e-03
5.250e-02,3.553e-03
5.750e-02,5.157e-03
6.250e-02,7.166e-03
6.750e-02,9.622e-03
7.250e-02,1.256e-02
7.750e-02,1.604e-02
8.250e-02,2.011e-02
8.750e-02,2.483e-02
9.250e-02,3.026e-02
9.750e-02,3.647e-02
1.025e-01,4.350e-02
1.075e-01,5.141e-02
1.125e-01,6.027e-02
1.175e-01,7.010e-02
1.225e-01,8.096e-02
1.275e-01,9.287e-02
1.325e-01,1.059e-01
1.375e-01,1.200e-01
1.425e-01,1.353e-01
1.475e-01,1.518e-01
1.525e-01,1.694e-01
1.575e-01,1.882e-01
1.625e-01,2.082e-01
1.675e-01,2.294e-01
1.725e-01,2.517e-01
1.775e-01,2.752e-01
1.825e-01,2.998e-01
1.875e-01,3.256e-01
1.925e-01,3.524e-01
1.975e-01,3.803e-01
2.025e-01,4.092e-01
2.075e-01,4.390e-01
2.125e-01,4.698e-01
2.175e-01,5.015e-01
2.225e-01,5.341e-01
2.275e-01,5.674e-01
2.325e-01,6.015e-01
2.375e-01,6.362e-01
2.425e-01,6.716e-01
2.475e-01,7.075e-01
2.525e-01,7.440e-01
2.575e-01,7.809e-01
2.625e-01,8.183e-01
2.675e-01,8.559e-01
2.725e-01,8.939e-01
2.775e-01,9.320e-01
2.825e-01,9.703e-01
2.875e-01,1.009e+00
2.925e-01,1.047e+00
2.975e-01,1.086e+00
3.025e-01,1.124e+00
3.075e-01,1.162e+00
3.125e-01,1.200e+00
3.175e-01,1.238e+00
3.225e-01,1.276e+00
3.275e-01,1.313e+00
3.325e-01,1.350e+00
3.375e-01,1.386e+00
3.425e-01,1.422e+00
3.475e-01,1.457e+00
3.525e-01,1.492e+00
3.575e-01,1.526e+00
3.625e-01,1.559e+00
3.675e-01,1.592e+00
3.725e-01,1.624e+00
3.775e-01,1.655e+00
3.825e-01,1.685e+00
3.875e-01,1.715e+00
3.925e-01,1.743e+00
3.975e-01,1.771e+00
4.025e-01,1.797e+00
4.075e-01,1.823e+00
4.125e-01,1.848e+00
4.175e-01,1.871e+00
4.225e-01,1.894e+00
4.275e-01,1.915e+00
4.325e-01,1.936e+00
4.375e-01,1.955e+00
4.425e-01,1.973e+00
4.475e-01,1.991e+00
4.525e-01,2.007e+00
4.575e-01,2.021e+00
4.625e-01,2.035e+00
4.675e-01,2.048e+00
4.725e-01,2.059e+00
4.775e-01,2.069e+00
4.825e-01,2.078e+00
4.875e-01,2.086e+00
4.925e-01,2.093e+00
4.975e-01,2.098e+00
5.025e-01,2.102e+00
5.075e-01,2.106e+00
5.125e-01,2.108e+00
5.175e-01,2.109e+00
5.225e-01,2.108e+00
5.275e-01,2.107e+00
5.325e-01,2.104e+00
5.375e-01,2.101e+00
5.425e-01,2.096e+00
5.475e-01,2.090e+00
5.525e-01,2.083e+00
5.575e-01,2.075e+00
5.625e-01,2.067e+00
5.675e-01,2.057e+00
5.725e-01,2.046e+00
5.775e-01,2.034e+00
5.825e-01,2.021e+00
5.875e-01,2.007e+00
5.925e-01,1.992e+00
5.975e-01,1.976e+00
6.025e-01,1.959e+00
6.075e-01,1.942e+00
6.125e-01,1.923e+00
6.175e-01,1.904e+00
6.225e-01,1.884e+00
6.275e-01,1.863e+00
6.325e-01,1.842e+00
6.375e-01,1.819e+00
6.425e-01,1.796e+00
6.475e-01,1.772e+00
6.525e-01,1.748e+00
6.575e-01,1.723e+00
6.625e-01,1.697e+00
6.675e-01,1.671e+00
6.725e-01,1.644e+00
6.775e-01,1.616e+00
6.825e-01,1.588e+00
6.875e-01,1.560e+00
6.925e-01,1.531e+00
6.975e-01,1.502e+00
7.025e-01,1.472e+00
7.075e-01,1.442e+00
7.125e-01,1.411e+00
7.175e-01,1.380e+00
7.225e-01,1.349e+00
7.275e-01,1.318e+00
7.325e-01,1.286e+00
7.375e-01,1.254e+00
7.425e-01,1.222e+00
7.475e-01,1.190e+00
7.525e-01,1.157e+00
7.575e-01,1.125e+00
7.625e-01,1.092e+00
7.675e-01,1.059e+00
7.725e-01,1.027e+00
7.775e-01,9.940e-01
7.825e-01,9.613e-01
7.875e-01,9.286e-01
7.925e-01,8.961e-01
7.975e-01,8.636e-01
8.025e-01,8.313e-01
8.075e-01,7.992e-01
8.125e-01,7.673e-01
8.175e-01,7.356e-01
8.225e-01,7.041e-01
8.275e-01,6.730e-01
8.325e-01,6.422e-01
8.375e-01,6.117e-01
8.425e-01,5.815e-01
8.475e-01,5.518e-01
8.525e-01,5.226e-01
8.575e-01,4.937e-01
8.625e-01,4.654e-01
8.675e-01,4.376e-01
8.725e-01,4.104e-01
8.775e-01,3.837e-01
8.825e-01,3.577e-01
8.875e-01,3.323e-01
8.925e-01,3.075e-01
8.975e-01,2.835e-01
9.025e-01,2.602e-01
9.075e-01,2.376e-01
9.125e-01,2.159e-01
9.175e-01,1.949e-01
9.225e-01,1.748e-01
9.275e-01,1.556e-01
9.325e-01,1.374e-01
9.375e-01,1.200e-01
9.425e-01,1.037e-01
9.475e-01,8.838e-02
9.525e-01,7.410e-02
9.575e-01,6.092e-02
9.625e-01,4.887e-02
9.675e-01,3.798e-02
9.725e-01,2.831e-02
9.775e-01,1.990e-02
9.825e-01,1.282e-02
9.875e-01,7.132e-03
9.925e-01,2.950e-03
9.975e-01,4.552e-04
