transmittance,probability_density
2.500e-03,4.578e-06
7.500e-03,3.881e-04
1.250e-02,1.789e-03
1.750e-02,3.791e-03
2.250e-02,7.228e-03
2.750e-02,1.324e-02
3.250e-02,2.225e-02
3.750e-02,3.434e-02
4.250e-02,4.953e-02
4.750e-02,6.792e-02
5.250e-02,8.957e-02
5.750e-02,1.146e-01
6.250e-02,1.428e-01
6.750e-02,1.744e-01
7.250e-02,2.091e-01
7.750e-02,2.469e-01
8.250e-02,2.874e-01
8.750e-02,3.307e-01
9.250e-02,3.764e-01
9.750e-02,4.243e-01
1.025e-01,4.742e-01
1.075e-01,5.258e-01
1.125e-01,5.790e-01
1.175e-01,6.335e-01
1.225e-01,6.891e-01
1.275e-01,7.455e-01
1.325e-01,8.026e-01
1.375e-01,8.601e-01
1.425e-01,9.178e-01
1.475e-01,9.756e-01
1.525e-01,1.033e+00
1.575e-01,1.091e+00
1.625e-01,1.148e+00
1.675e-01,1.204e+00
1.725e-01,1.260e+00
1.775e-01,1.315e+00
1.825e-01,1.369e+00
1.875e-01,1.421e+00
1.925e-01,1.473e+00
1.975e-01,1.523e+00
2.025e-01,1.572e+00
2.075e-01,1.620e+00
2.125e-01,1.666e+00
2.175e-01,1.711e+00
2.225e-01,1.754e+00
2.275e-01,1.795e+00
2.325e-01,1.835e+00
2.375e-01,1.873e+00
2.425e-01,1.909e+00
2.475e-01,1.943e+00
2.525e-01,1.976e+00
2.575e-01,2.007e+00
2.625e-01,2.036e+00
2.675e-01,2.063e+00
2.725e-01,2.088e+00
2.775e-01,2.112e+00
2.825e-01,2.134e+00
2.875e-01,2.153e+00
2.925e-01,2.172e+00
2.975e-01,2.188e+00
3.025e-01,2.202e+00
3.075e-01,2.215e+00
3.125e-01,2.226e+00
3.175e-01,2.236e+00
3.225e-01,2.244e+00
3.275e-01,2.250e+00
3.325e-01,2.254e+00
3.375e-01,2.257e+00
3.425e-01,2.259e+00
3.475e-01,2.259e+00
3.525e-01,2.257e+00
3.575e-01,2.254e+00
3.625e-01,2.250e+00
3.675e-01,2.244e+00
3.725e-01,2.237e+00
3.775e-01,2.228e+00
3.825e-01,2.218e+00
3.875e-01,2.207e+00
3.925e-01,2.195e+00
3.975e-01,2.182e+00
4.025e-01,2.168e+00
4.075e-01,2.152e+00
4.125e-01,2.136e+00
4.175e-01,2.118e+00
4.225e-01,2.100e+00
4.275e-01,2.081e+00
4.325e-01,2.060e+00
4.375e-01,2.039e+00
4.425e-01,2.017e+00
4.475e-01,1.995e+00
4.525e-01,1.972e+00
4.575e-01,1.948e+00
4.625e-01,1.923e+00
4.675e-01,1.898e+00
4.725e-01,1.872e+00
4.775e-01,1.845e+00
4.825e-01,1.818e+00
4.875e-01,1.791e+00
4.925e-01,1.763e+00
4.975e-01,1.735e+00
5.025e-01,1.706e+00
5.075e-01,1.677e+00
5.125e-01,1.648e+00
5.175e-01,1.618e+00
5.225e-01,1.589e+00
5.275e-01,1.559e+00
5.325e-01,1.528e+00
5.375e-01,1.498e+00
5.425e-01,1.468e+00
5.475e-01,1.437e+00
5.525e-01,1.406e+00
5.575e-01,1.376e+00
5.625e-01,1.345e+00
5.675e-01,1.314e+00
5.725e-01,1.283e+00
5.775e-01,1.253e+00
5.825e-01,1.222e+00
5.875e-01,1.192e+00
5.925e-01,1.161e+00
5.975e-01,1.131e+00
6.025e-01,1.101e+00
6.075e-01,1.071e+00
6.125e-01,1.041e+00
6.175e-01,1.012e+00
6.225e-01,9.826e-01
6.275e-01,9.536e-01
6.325e-01,9.249e-01
6.375e-01,8.965e-01
6.425e-01,8.684e-01
6.475e-01,8.406e-01
6.525e-01,8.131e-01
6.575e-01,7.860e-01
6.625e-01,7.593e-01
6.675e-01,7.329e-01
6.725e-01,7.070e-01
6.775e-01,6.814e-01
6.825e-01,6.563e-01
6.875e-01,6.315e-01
6.925e-01,6.072e-01
6.975e-01,5.834e-01
7.025e-01,5.600e-01
7.075e-01,5.371e-01
7.125e-01,5.146e-01
7.175e-01,4.926e-01
7.225e-01,4.711e-01
7.275e-01,4.501e-01
7.325e-01,4.295e-01
7.375e-01,4.095e-01
7.425e-01,3.899e-01
7.475e-01,3.709e-01
7.525e-01,3.524e-01
7.575e-01,3.344e-01
7.625e-01,3.169e-01
7.675e-01,2.999e-01
7.725e-01,2.835e-01
7.775e-01,2.675e-01
7.825e-01,2.521e-01
7.875e-01,2.372e-01
7.925e-01,2.228e-01
7.975e-01,2.089e-01
8.025e-01,1.956e-01
8.075e-01,1.827e-01
8.125e-01,1.704e-01
8.175e-01,1.586e-01
8.225e-01,1.472e-01
8.275e-01,1.364e-01
8.325e-01,1.260e-01
8.375e-01,1.162e-01
8.425e-01,1.068e-01
8.475e-01,9.788e-02
8.525e-01,8.944e-02
8.575e-01,8.146e-02
8.625e-01,7.393e-02
8.675e-01,6.684e-02
8.725e-01,6.019e-02
8.775e-01,5.396e-02
8.825e-01,4.815e-02
8.875e-01,4.275e-02
8.925e-01,3.774e-02
8.975e-01,3.311e-02
9.025e-01,2.886e-02
9.075e-01,2.497e-02
9.125e-01,2.143e-02
9.175e-01,1.822e-02
9.225e-01,1.533e-02
9.275e-01,1.275e-02
9.325e-01,1.047e-02
9.375e-01,8.464e-03
9.425e-01,6.722e-03
9.475e-01,5.227e-03
9.525e-01,3.964e-03
9.575e-01,2.915e-03
9.625e-01,2.063e-03
9.675e-01,1.390e-03
9.725e-01,8.771e-04
9.775e-01,5.050e-04
9.825e-01,2.533e-04
9.875e-01,1.009e-04
9.925e-01,2.513e-05
9.975e-01,1.299e-06
