transmittance,probability_density
2.500e-03,4.078e-23
7.500e-03,7.189e-19
1.250e-02,6.910e-17
1.750e-02,1.410e-15
2.250e-02,1.349e-14
2.750e-02,8.222e-14
3.250e-02,3.712e-13
3.750e-02,1.354e-12
4.250e-02,4.205e-12
4.750e-02,1.153e-11
5.250e-02,2.867e-11
5.750e-02,6.672e-11
6.250e-02,1.648e-10
6.750e-02,6.371e-10
7.250e-02,4.208e-09
7.750e-02,2.947e-08
8.250e-02,1.737e-07
8.750e-02,8.342e-07
9.250e-02,3.299e-06
9.750e-02,1.093e-05
1.025e-01,3.087e-05
1.075e-01,7.543e-05
1.125e-01,1.616e-04
1.175e-01,3.073e-04
1.225e-01,5.246e-04
1.275e-01,8.128e-04
1.325e-01,1.155e-03
1.375e-01,1.523e-03
1.425e-01,1.883e-03
1.475e-01,2.212e-03
1.525e-01,2.502e-03
1.575e-01,2.761e-03
1.625e-01,3.013e-03
1.675e-01,3.283e-03
1.725e-01,3.598e-03
1.775e-01,3.976e-03
1.825e-01,4.428e-03
1.875e-01,4.958e-03
1.925e-01,5.566e-03
1.975e-01,6.252e-03
2.025e-01,7.015e-03
2.075e-01,7.859e-03
2.125e-01,8.789e-03
2.175e-01,9.812e-03
2.225e-01,1.094e-02
2.275e-01,1.217e-02
2.325e-01,1.353e-02
2.375e-01,1.502e-02
2.425e-01,1.666e-02
2.475e-01,1.845e-02
2.525e-01,2.040e-02
2.575e-01,2.252e-02
2.625e-01,2.483e-02
2.675e-01,2.731e-02
2.725e-01,2.999e-02
2.775e-01,3.285e-02
2.825e-01,3.590e-02
2.875e-01,3.915e-02
2.925e-01,4.260e-02
2.975e-01,4.626e-02
3.025e-01,5.012e-02
3.075e-01,5.421e-02
3.125e-01,5.854e-02
3.175e-01,6.313e-02
3.225e-01,6.799e-02
3.275e-01,7.316e-02
3.325e-01,7.865e-02
3.375e-01,8.450e-02
3.425e-01,9.074e-02
3.475e-01,9.738e-02
3.525e-01,1.045e-01
3.575e-01,1.120e-01
3.625e-01,1.201e-01
3.675e-01,1.287e-01
3.725e-01,1.378e-01
3.775e-01,1.476e-01
3.825e-01,1.579e-01
3.875e-01,1.689e-01
3.925e-01,1.805e-01
3.975e-01,1.928e-01
4.025e-01,2.058e-01
4.075e-01,2.195e-01
4.125e-01,2.340e-01
4.175e-01,2.493e-01
4.225e-01,2.653e-01
4.275e-01,2.822e-01
4.325e-01,3.000e-01
4.375e-01,3.186e-01
4.425e-01,3.381e-01
4.475e-01,3.585e-01
4.525e-01,3.799e-01
4.575e-01,4.023e-01
4.625e-01,4.257e-01
4.675e-01,4.500e-01
4.725e-01,4.754e-01
4.775e-01,5.019e-01
4.825e-01,5.294e-01
4.875e-01,5.580e-01
4.925e-01,5.876e-01
4.975e-01,6.184e-01
5.025e-01,6.502e-01
5.075e-01,6.832e-01
5.125e-01,7.173e-01
5.175e-01,7.524e-01
5.225e-01,7.886e-01
5.275e-01,8.259e-01
5.325e-01,8.643e-01
5.375e-01,9.037e-01
5.425e-01,9.441e-01
5.475e-01,9.855e-01
5.525e-01,1.028e+00
5.575e-01,1.071e+00
5.625e-01,1.115e+00
5.675e-01,1.160e+00
5.725e-01,1.206e+00
5.775e-01,1.253e+00
5.825e-01,1.300e+00
5.875e-01,1.348e+00
5.925e-01,1.396e+00
5.975e-01,1.445e+00
6.025e-01,1.495e+00
6.075e-01,1.545e+00
6.125e-01,1.595e+00
6.175e-01,1.645e+00
6.225e-01,1.696e+00
6.275e-01,1.746e+00
6.325e-01,1.797e+00
6.375e-01,1.847e+00
6.425e-01,1.898e+00
6.475e-01,1.948e+00
6.525e-01,1.997e+00
6.575e-01,2.046e+00
6.625e-01,2.095e+00
6.675e-01,2.143e+00
6.725e-01,2.191e+00
6.775e-01,2.237e+00
6.825e-01,2.283e+00
6.875e-01,2.327e+00
6.925e-01,2.371e+00
6.975e-01,2.413e+00
7.025e-01,2.454e+00
7.075e-01,2.494e+00
7.125e-01,2.532e+00
7.175e-01,2.568e+00
7.225e-01,2.603e+00
7.275e-01,2.636e+00
7.325e-01,2.667e+00
7.375e-01,2.697e+00
7.425e-01,2.724e+00
7.475e-01,2.749e+00
7.525e-01,2.772e+00
7.575e-01,2.793e+00
7.625e-01,2.811e+00
7.675e-01,2.827e+00
7.725e-01,2.840e+00
7.775e-01,2.851e+00
7.825e-01,2.859e+00
7.875e-01,2.865e+00
7.925e-01,2.867e+00
7.975e-01,2.867e+00
8.025e-01,2.863e+00
8.075e-01,2.857e+00
8.125e-01,2.847e+00
8.175e-01,2.834e+00
8.225e-01,2.818e+00
8.275e-01,2.799e+00
8.325e-01,2.776e+00
8.375e-01,2.750e+00
8.425e-01,2.721e+00
8.475e-01,2.688e+00
8.525e-01,2.652e+00
8.575e-01,2.612e+00
8.625e-01,2.568e+00
8.675e-01,2.521e+00
8.725e-01,2.470e+00
8.775e-01,2.415e+00
8.825e-01,2.356e+00
8.875e-01,2.294e+00
8.925e-01,2.228e+00
8.975e-01,2.159e+00
9.025e-01,2.085e+00
9.075e-01,2.008e+00
9.125e-01,1.927e+00
9.175e-01,1.843e+00
9.225e-01,1.755e+00
9.275e-01,1.663e+00
9.325e-01,1.568e+00
9.375e-01,1.469e+00
9.425e-01,1.367e+00
9.475e-01,1.262e+00
9.525e-01,1.154e+00
9.575e-01,1.042e+00
9.625e-01,9.283e-01
9.675e-01,8.116e-01
9.725e-01,6.925e-01
9.775e-01,5.712e-01
9.825e-01,4.481e-01
9.875e-01,3.236e-01
9.925e-01,1.978e-01
9.975e-01,7.019e-02
