transmittance,probability_density
2.500e-03,8.799e-26
7.500e-03,4.816e-21
1.250e-02,7.831e-19
1.750e-02,2.259e-17
2.250e-02,2.797e-16
2.750e-02,2.094e-15
3.250e-02,1.122e-14
3.750e-02,4.736e-14
4.250e-02,1.672e-13
4.750e-02,5.151e-13
5.250e-02,1.525e-12
5.750e-02,8.980e-12
6.250e-02,1.594e-10
6.750e-02,2.628e-09
7.250e-02,2.994e-08
7.750e-02,2.397e-07
8.250e-02,1.403e-06
8.750e-02,6.209e-06
9.250e-02,2.143e-05
9.750e-02,5.916e-05
1.025e-01,1.335e-04
1.075e-01,2.513e-04
1.125e-01,4.019e-04
1.175e-01,5.561e-04
1.225e-01,6.793e-04
1.275e-01,7.503e-04
1.325e-01,7.741e-04
1.375e-01,7.797e-04
1.425e-01,8.083e-04
1.475e-01,8.994e-04
1.525e-01,1.080e-03
1.575e-01,1.361e-03
1.625e-01,1.735e-03
1.675e-01,2.177e-03
1.725e-01,2.655e-03
1.775e-01,3.133e-03
1.825e-01,3.581e-03
1.875e-01,3.984e-03
1.925e-01,4.339e-03
1.975e-01,4.662e-03
2.025e-01,4.978e-03
2.075e-01,5.322e-03
2.125e-01,5.728e-03
2.175e-01,6.232e-03
2.225e-01,6.862e-03
2.275e-01,7.641e-03
2.325e-01,8.584e-03
2.375e-01,9.700e-03
2.425e-01,1.099e-02
2.475e-01,1.245e-02
2.525e-01,1.406e-02
2.575e-01,1.583e-02
2.625e-01,1.773e-02
2.675e-01,1.975e-02
2.725e-01,2.190e-02
2.775e-01,2.415e-02
2.825e-01,2.651e-02
2.875e-01,2.900e-02
2.925e-01,3.161e-02
2.975e-01,3.436e-02
3.025e-01,3.726e-02
3.075e-01,4.035e-02
3.125e-01,4.363e-02
3.175e-01,4.713e-02
3.225e-01,5.087e-02
3.275e-01,5.486e-02
3.325e-01,5.912e-02
3.375e-01,6.368e-02
3.425e-01,6.854e-02
3.475e-01,7.371e-02
3.525e-01,7.921e-02
3.575e-01,8.505e-02
3.625e-01,9.124e-02
3.675e-01,9.780e-02
3.725e-01,1.047e-01
3.775e-01,1.121e-01
3.825e-01,1.198e-01
3.875e-01,1.280e-01
3.925e-01,1.366e-01
3.975e-01,1.457e-01
4.025e-01,1.554e-01
4.075e-01,1.655e-01
4.125e-01,1.762e-01
4.175e-01,1.875e-01
4.225e-01,1.994e-01
4.275e-01,2.119e-01
4.325e-01,2.252e-01
4.375e-01,2.391e-01
4.425e-01,2.539e-01
4.475e-01,2.694e-01
4.525e-01,2.858e-01
4.575e-01,3.030e-01
4.625e-01,3.212e-01
4.675e-01,3.403e-01
4.725e-01,3.604e-01
4.775e-01,3.815e-01
4.825e-01,4.036e-01
4.875e-01,4.268e-01
4.925e-01,4.511e-01
4.975e-01,4.766e-01
5.025e-01,5.032e-01
5.075e-01,5.309e-01
5.125e-01,5.599e-01
5.175e-01,5.901e-01
5.225e-01,6.215e-01
5.275e-01,6.542e-01
5.325e-01,6.881e-01
5.375e-01,7.233e-01
5.425e-01,7.598e-01
5.475e-01,7.975e-01
5.525e-01,8.364e-01
5.575e-01,8.766e-01
5.625e-01,9.180e-01
5.675e-01,9.607e-01
5.725e-01,1.004e+00
5.775e-01,1.049e+00
5.825e-01,1.096e+00
5.875e-01,1.143e+00
5.925e-01,1.191e+00
5.975e-01,1.240e+00
6.025e-01,1.290e+00
6.075e-01,1.341e+00
6.125e-01,1.393e+00
6.175e-01,1.446e+00
6.225e-01,1.499e+00
6.275e-01,1.553e+00
6.325e-01,1.608e+00
6.375e-01,1.663e+00
6.425e-01,1.718e+00
6.475e-01,1.773e+00
6.525e-01,1.829e+00
6.575e-01,1.885e+00
6.625e-01,1.941e+00
6.675e-01,1.996e+00
6.725e-01,2.051e+00
6.775e-01,2.106e+00
6.825e-01,2.161e+00
6.875e-01,2.215e+00
6.925e-01,2.268e+00
6.975e-01,2.321e+00
7.025e-01,2.372e+00
7.075e-01,2.423e+00
7.125e-01,2.472e+00
7.175e-01,2.520e+00
7.225e-01,2.567e+00
7.275e-01,2.612e+00
7.325e-01,2.656e+00
7.375e-01,2.698e+00
7.425e-01,2.738e+00
7.475e-01,2.776e+00
7.525e-01,2.812e+00
7.575e-01,2.846e+00
7.625e-01,2.877e+00
7.675e-01,2.906e+00
7.725e-01,2.933e+00
7.775e-01,2.957e+00
7.825e-01,2.978e+00
7.875e-01,2.996e+00
7.925e-01,3.011e+00
7.975e-01,3.023e+00
8.025e-01,3.032e+00
8.075e-01,3.037e+00
8.125e-01,3.039e+00
8.175e-01,3.037e+00
8.225e-01,3.032e+00
8.275e-01,3.023e+00
8.325e-01,3.010e+00
8.375e-01,2.993e+00
8.425e-01,2.972e+00
8.475e-01,2.947e+00
8.525e-01,2.918e+00
8.575e-01,2.884e+00
8.625e-01,2.846e+00
8.675e-01,2.804e+00
8.725e-01,2.757e+00
8.775e-01,2.705e+00
8.825e-01,2.649e+00
8.875e-01,2.588e+00
8.925e-01,2.522e+00
8.975e-01,2.452e+00
9.025e-01,2.376e+00
9.075e-01,2.296e+00
9.125e-01,2.211e+00
9.175e-01,2.121e+00
9.225e-01,2.026e+00
9.275e-01,1.926e+00
9.325e-01,1.822e+00
9.375e-01,1.712e+00
9.425e-01,1.598e+00
9.475e-01,1.480e+00
9.525e-01,1.357e+00
9.575e-01,1.229e+00
9.625e-01,1.098e+00
9.675e-01,9.622e-01
9.725e-01,8.231e-01
9.775e-01,6.806e-01
9.825e-01,5.352e-01
9.875e-01,3.872e-01
9.925e-01,2.371e-01
9.975e-01,8.413e-02
