transmittance,probability_density
1.121e-01,5.280e-25
1.166e-01,1.585e-24
1.210e-01,5.160e-24
1.255e-01,1.047e-22
1.299e-01,9.603e-21
1.344e-01,7.011e-19
1.388e-01,3.697e-17
1.433e-01,1.431e-15
1.477e-01,4.133e-14
1.522e-01,9.049e-13
1.566e-01,1.523e-11
1.611e-01,1.997e-10
1.655e-01,2.064e-09
1.700e-01,1.700e-08
1.744e-01,1.126e-07
1.789e-01,6.065e-07
1.833e-01,2.675e-06
1.878e-01,9.746e-06
1.922e-01,2.954e-05
1.967e-01,7.507e-05
2.011e-01,1.610e-04
2.056e-01,2.939e-04
2.100e-01,4.606e-04
2.145e-01,6.278e-04
2.189e-01,7.595e-04
2.234e-01,8.417e-04
2.278e-01,8.943e-04
2.323e-01,9.560e-04
2.367e-01,1.054e-03
2.412e-01,1.187e-03
2.456e-01,1.326e-03
2.501e-01,1.444e-03
2.545e-01,1.530e-03
2.590e-01,1.596e-03
2.634e-01,1.667e-03
2.679e-01,1.763e-03
2.724e-01,1.894e-03
2.768e-01,2.052e-03
2.813e-01,2.222e-03
2.857e-01,2.384e-03
2.902e-01,2.525e-03
2.946e-01,2.641e-03
2.991e-01,2.741e-03
3.035e-01,2.844e-03
3.080e-01,2.977e-03
3.124e-01,3.169e-03
3.169e-01,3.447e-03
3.213e-01,3.828e-03
3.258e-01,4.314e-03
3.302e-01,4.892e-03
3.347e-01,5.533e-03
3.391e-01,6.203e-03
3.436e-01,6.865e-03
3.480e-01,7.492e-03
3.525e-01,8.070e-03
3.569e-01,8.599e-03
3.614e-01,9.093e-03
3.658e-01,9.575e-03
3.703e-01,1.007e-02
3.747e-01,1.060e-02
3.792e-01,1.119e-02
3.836e-01,1.184e-02
3.881e-01,1.256e-02
3.925e-01,1.336e-02
3.970e-01,1.426e-02
4.014e-01,1.525e-02
4.059e-01,1.636e-02
4.103e-01,1.759e-02
4.148e-01,1.896e-02
4.192e-01,2.045e-02
4.237e-01,2.207e-02
4.281e-01,2.379e-02
4.326e-01,2.562e-02
4.370e-01,2.754e-02
4.415e-01,2.954e-02
4.459e-01,3.163e-02
4.504e-01,3.382e-02
4.548e-01,3.612e-02
4.593e-01,3.857e-02
4.637e-01,4.117e-02
4.682e-01,4.396e-02
4.726e-01,4.696e-02
4.771e-01,5.019e-02
4.815e-01,5.367e-02
4.860e-01,5.739e-02
4.904e-01,6.137e-02
4.949e-01,6.561e-02
4.993e-01,7.008e-02
5.038e-01,7.480e-02
5.082e-01,7.974e-02
5.127e-01,8.491e-02
5.171e-01,9.030e-02
5.216e-01,9.591e-02
5.260e-01,1.018e-01
5.305e-01,1.079e-01
5.349e-01,1.142e-01
5.394e-01,1.209e-01
5.438e-01,1.280e-01
5.483e-01,1.354e-01
5.527e-01,1.433e-01
5.572e-01,1.516e-01
5.616e-01,1.605e-01
5.661e-01,1.699e-01
5.705e-01,1.798e-01
5.750e-01,1.904e-01
5.794e-01,2.017e-01
5.839e-01,2.136e-01
5.883e-01,2.263e-01
5.928e-01,2.397e-01
5.972e-01,2.539e-01
6.017e-01,2.689e-01
6.061e-01,2.848e-01
6.106e-01,3.016e-01
6.150e-01,3.193e-01
6.195e-01,3.380e-01
6.239e-01,3.577e-01
6.284e-01,3.786e-01
6.328e-01,4.006e-01
6.373e-01,4.238e-01
6.417e-01,4.484e-01
6.462e-01,4.744e-01
6.506e-01,5.019e-01
6.551e-01,5.311e-01
6.595e-01,5.619e-01
6.640e-01,5.947e-01
6.684e-01,6.294e-01
6.729e-01,6.662e-01
6.773e-01,7.051e-01
6.818e-01,7.465e-01
6.862e-01,7.902e-01
6.907e-01,8.365e-01
6.951e-01,8.855e-01
6.996e-01,9.373e-01
7.040e-01,9.920e-01
7.085e-01,1.050e+00
7.129e-01,1.111e+00
7.174e-01,1.175e+00
7.218e-01,1.242e+00
7.263e-01,1.313e+00
7.307e-01,1.388e+00
7.352e-01,1.466e+00
7.396e-01,1.548e+00
7.441e-01,1.634e+00
7.485e-01,1.724e+00
7.530e-01,1.818e+00
7.575e-01,1.917e+00
7.619e-01,2.019e+00
7.664e-01,2.125e+00
7.708e-01,2.236e+00
7.753e-01,2.350e+00
7.797e-01,2.468e+00
7.842e-01,2.591e+00
7.886e-01,2.716e+00
7.931e-01,2.845e+00
7.975e-01,2.977e+00
8.020e-01,3.111e+00
8.064e-01,3.248e+00
8.109e-01,3.387e+00
8.153e-01,3.527e+00
8.198e-01,3.668e+00
8.242e-01,3.809e+00
8.287e-01,3.949e+00
8.331e-01,4.088e+00
8.376e-01,4.225e+00
8.420e-01,4.359e+00
8.465e-01,4.488e+00
8.509e-01,4.613e+00
8.554e-01,4.731e+00
8.598e-01,4.842e+00
8.643e-01,4.944e+00
8.687e-01,5.036e+00
8.732e-01,5.116e+00
8.776e-01,5.184e+00
8.821e-01,5.236e+00
8.865e-01,5.273e+00
8.910e-01,5.293e+00
8.954e-01,5.293e+00
8.999e-01,5.272e+00
9.043e-01,5.230e+00
9.088e-01,5.164e+00
9.132e-01,5.073e+00
9.177e-01,4.957e+00
9.221e-01,4.813e+00
9.266e-01,4.643e+00
9.310e-01,4.444e+00
9.355e-01,4.218e+00
9.399e-01,3.965e+00
9.444e-01,3.685e+00
9.488e-01,3.382e+00
9.533e-01,3.056e+00
9.577e-01,2.713e+00
9.622e-01,2.355e+00
9.666e-01,1.989e+00
9.711e-01,1.622e+00
9.755e-01,1.262e+00
9.800e-01,9.205e-01
9.844e-01,6.090e-01
9.889e-01,3.426e-01
9.933e-01,1.388e-01
9.978e-01,1.894e-02
