transmittance,probability_density
6.281e-04,2.105e-81
1.884e-03,7.179e-50
3.141e-03,8.273e-38
4.397e-03,9.135e-31
5.653e-03,5.675e-26
6.909e-03,1.970e-22
8.165e-03,1.116e-19
9.421e-03,1.843e-17
1.068e-02,1.257e-15
1.193e-02,4.422e-14
1.319e-02,9.337e-13
1.445e-02,1.316e-11
1.570e-02,1.338e-10
1.696e-02,1.040e-09
1.821e-02,6.461e-09
1.947e-02,3.324e-08
2.073e-02,1.455e-07
2.198e-02,5.544e-07
2.324e-02,1.872e-06
2.450e-02,5.688e-06
2.575e-02,1.575e-05
2.701e-02,4.016e-05
2.826e-02,9.516e-05
2.952e-02,2.111e-04
3.078e-02,4.416e-04
3.203e-02,8.757e-04
3.329e-02,1.655e-03
3.455e-02,2.992e-03
3.580e-02,5.197e-03
3.706e-02,8.703e-03
3.831e-02,1.409e-02
3.957e-02,2.212e-02
4.083e-02,3.375e-02
4.208e-02,5.014e-02
4.334e-02,7.271e-02
4.460e-02,1.031e-01
4.585e-02,1.430e-01
4.711e-02,1.947e-01
4.836e-02,2.601e-01
4.962e-02,3.416e-01
5.088e-02,4.416e-01
5.213e-02,5.622e-01
5.339e-02,7.059e-01
5.464e-02,8.745e-01
5.590e-02,1.070e+00
5.716e-02,1.294e+00
5.841e-02,1.547e+00
5.967e-02,1.831e+00
6.093e-02,2.146e+00
6.218e-02,2.491e+00
6.344e-02,2.866e+00
6.469e-02,3.270e+00
6.595e-02,3.701e+00
6.721e-02,4.158e+00
6.846e-02,4.637e+00
6.972e-02,5.137e+00
7.098e-02,5.653e+00
7.223e-02,6.183e+00
7.349e-02,6.722e+00
7.474e-02,7.268e+00
7.600e-02,7.815e+00
7.726e-02,8.361e+00
7.851e-02,8.901e+00
7.977e-02,9.431e+00
8.102e-02,9.949e+00
8.228e-02,1.045e+01
8.354e-02,1.093e+01
8.479e-02,1.139e+01
8.605e-02,1.182e+01
8.731e-02,1.223e+01
8.856e-02,1.260e+01
8.982e-02,1.294e+01
9.107e-02,1.325e+01
9.233e-02,1.353e+01
9.359e-02,1.377e+01
9.484e-02,1.397e+01
9.610e-02,1.414e+01
9.736e-02,1.428e+01
9.861e-02,1.437e+01
9.987e-02,1.444e+01
1.011e-01,1.447e+01
1.024e-01,1.447e+01
1.036e-01,1.443e+01
1.049e-01,1.437e+01
1.061e-01,1.428e+01
1.074e-01,1.416e+01
1.087e-01,1.401e+01
1.099e-01,1.384e+01
1.112e-01,1.365e+01
1.124e-01,1.344e+01
1.137e-01,1.321e+01
1.149e-01,1.297e+01
1.162e-01,1.271e+01
1.175e-01,1.243e+01
1.187e-01,1.215e+01
1.200e-01,1.185e+01
1.212e-01,1.155e+01
1.225e-01,1.124e+01
1.237e-01,1.092e+01
1.250e-01,1.060e+01
1.262e-01,1.028e+01
1.275e-01,9.959e+00
1.288e-01,9.635e+00
1.300e-01,9.312e+00
1.313e-01,8.990e+00
1.325e-01,8.671e+00
1.338e-01,8.356e+00
1.350e-01,8.044e+00
1.363e-01,7.737e+00
1.376e-01,7.435e+00
1.388e-01,7.139e+00
1.401e-01,6.849e+00
1.413e-01,6.565e+00
1.426e-01,6.289e+00
1.438e-01,6.019e+00
1.451e-01,5.757e+00
1.463e-01,5.503e+00
1.476e-01,5.256e+00
1.489e-01,5.017e+00
1.501e-01,4.786e+00
1.514e-01,4.562e+00
1.526e-01,4.347e+00
1.539e-01,4.139e+00
1.551e-01,3.938e+00
1.564e-01,3.746e+00
1.577e-01,3.561e+00
1.589e-01,3.383e+00
1.602e-01,3.213e+00
1.614e-01,3.049e+00
1.627e-01,2.893e+00
1.639e-01,2.743e+00
1.652e-01,2.600e+00
1.664e-01,2.464e+00
1.677e-01,2.333e+00
1.690e-01,2.209e+00
1.702e-01,2.090e+00
1.715e-01,1.977e+00
1.727e-01,1.869e+00
1.740e-01,1.767e+00
1.752e-01,1.670e+00
1.765e-01,1.577e+00
1.778e-01,1.489e+00
1.790e-01,1.406e+00
1.803e-01,1.326e+00
1.815e-01,1.251e+00
1.828e-01,1.180e+00
1.840e-01,1.113e+00
1.853e-01,1.049e+00
1.865e-01,9.883e-01
1.878e-01,9.310e-01
1.891e-01,8.769e-01
1.903e-01,8.257e-01
1.916e-01,7.773e-01
1.928e-01,7.316e-01
1.941e-01,6.884e-01
1.953e-01,6.476e-01
1.966e-01,6.091e-01
1.979e-01,5.728e-01
1.991e-01,5.385e-01
2.004e-01,5.062e-01
2.016e-01,4.757e-01
2.029e-01,4.470e-01
2.041e-01,4.200e-01
2.054e-01,3.945e-01
2.066e-01,3.705e-01
2.079e-01,3.479e-01
2.092e-01,3.267e-01
2.104e-01,3.067e-01
2.117e-01,2.879e-01
2.129e-01,2.702e-01
2.142e-01,2.535e-01
2.154e-01,2.379e-01
2.167e-01,2.231e-01
2.180e-01,2.093e-01
2.192e-01,1.963e-01
2.205e-01,1.841e-01
2.217e-01,1.727e-01
2.230e-01,1.619e-01
2.242e-01,1.518e-01
2.255e-01,1.423e-01
2.267e-01,1.334e-01
2.280e-01,1.250e-01
2.293e-01,1.171e-01
2.305e-01,1.098e-01
2.318e-01,1.029e-01
2.330e-01,9.639e-02
2.343e-01,9.030e-02
2.355e-01,8.460e-02
2.368e-01,7.925e-02
2.380e-01,7.424e-02
2.393e-01,6.954e-02
2.406e-01,6.513e-02
2.418e-01,6.100e-02
2.431e-01,5.712e-02
2.443e-01,5.349e-02
2.456e-01,5.009e-02
2.468e-01,4.691e-02
2.481e-01,4.392e-02
2.494e-01,4.112e-02
2.506e-01,3.850e-02
