transmittance,probability_density
1.068e-04,1.130e-67
3.204e-04,1.059e-40
5.341e-04,1.975e-30
7.477e-04,1.877e-24
9.613e-04,2.141e-20
1.175e-03,2.087e-17
1.389e-03,4.347e-15
1.602e-03,3.176e-13
1.816e-03,1.094e-11
2.029e-03,2.151e-10
2.243e-03,2.743e-09
2.457e-03,2.483e-08
2.670e-03,1.706e-07
2.884e-03,9.339e-07
3.097e-03,4.233e-06
3.311e-03,1.636e-05
3.525e-03,5.517e-05
3.738e-03,1.656e-04
3.952e-03,4.489e-04
4.166e-03,1.114e-03
4.379e-03,2.555e-03
4.593e-03,5.472e-03
4.806e-03,1.102e-02
5.020e-03,2.100e-02
5.234e-03,3.808e-02
5.447e-03,6.606e-02
5.661e-03,1.101e-01
5.875e-03,1.767e-01
6.088e-03,2.745e-01
6.302e-03,4.135e-01
6.515e-03,6.057e-01
6.729e-03,8.646e-01
6.943e-03,1.205e+00
7.156e-03,1.644e+00
7.370e-03,2.196e+00
7.584e-03,2.880e+00
7.797e-03,3.712e+00
8.011e-03,4.706e+00
8.224e-03,5.877e+00
8.438e-03,7.236e+00
8.652e-03,8.792e+00
8.865e-03,1.055e+01
9.079e-03,1.251e+01
9.292e-03,1.468e+01
9.506e-03,1.705e+01
9.720e-03,1.961e+01
9.933e-03,2.235e+01
1.015e-02,2.525e+01
1.036e-02,2.830e+01
1.057e-02,3.147e+01
1.079e-02,3.475e+01
1.100e-02,3.810e+01
1.122e-02,4.151e+01
1.143e-02,4.494e+01
1.164e-02,4.837e+01
1.186e-02,5.177e+01
1.207e-02,5.512e+01
1.228e-02,5.839e+01
1.250e-02,6.156e+01
1.271e-02,6.460e+01
1.292e-02,6.750e+01
1.314e-02,7.024e+01
1.335e-02,7.279e+01
1.356e-02,7.516e+01
1.378e-02,7.731e+01
1.399e-02,7.926e+01
1.421e-02,8.098e+01
1.442e-02,8.248e+01
1.463e-02,8.376e+01
1.485e-02,8.480e+01
1.506e-02,8.562e+01
1.527e-02,8.621e+01
1.549e-02,8.659e+01
1.570e-02,8.676e+01
1.591e-02,8.672e+01
1.613e-02,8.648e+01
1.634e-02,8.605e+01
1.656e-02,8.545e+01
1.677e-02,8.469e+01
1.698e-02,8.376e+01
1.720e-02,8.269e+01
1.741e-02,8.149e+01
1.762e-02,8.017e+01
1.784e-02,7.874e+01
1.805e-02,7.722e+01
1.826e-02,7.560e+01
1.848e-02,7.391e+01
1.869e-02,7.215e+01
1.891e-02,7.034e+01
1.912e-02,6.848e+01
1.933e-02,6.659e+01
1.955e-02,6.467e+01
1.976e-02,6.273e+01
1.997e-02,6.077e+01
2.019e-02,5.882e+01
2.040e-02,5.686e+01
2.061e-02,5.492e+01
2.083e-02,5.298e+01
2.104e-02,5.107e+01
2.126e-02,4.918e+01
2.147e-02,4.731e+01
2.168e-02,4.548e+01
2.190e-02,4.368e+01
2.211e-02,4.192e+01
2.232e-02,4.020e+01
2.254e-02,3.852e+01
2.275e-02,3.688e+01
2.296e-02,3.529e+01
2.318e-02,3.374e+01
2.339e-02,3.224e+01
2.361e-02,3.078e+01
2.382e-02,2.938e+01
2.403e-02,2.802e+01
2.425e-02,2.671e+01
2.446e-02,2.544e+01
2.467e-02,2.422e+01
2.489e-02,2.305e+01
2.510e-02,2.193e+01
2.531e-02,2.085e+01
2.553e-02,1.981e+01
2.574e-02,1.881e+01
2.595e-02,1.786e+01
2.617e-02,1.695e+01
2.638e-02,1.608e+01
2.660e-02,1.524e+01
2.681e-02,1.445e+01
2.702e-02,1.369e+01
2.724e-02,1.296e+01
2.745e-02,1.227e+01
2.766e-02,1.162e+01
2.788e-02,1.099e+01
2.809e-02,1.039e+01
2.830e-02,9.828e+00
2.852e-02,9.290e+00
2.873e-02,8.779e+00
2.895e-02,8.293e+00
2.916e-02,7.833e+00
2.937e-02,7.396e+00
2.959e-02,6.981e+00
2.980e-02,6.588e+00
3.001e-02,6.216e+00
3.023e-02,5.863e+00
3.044e-02,5.530e+00
3.065e-02,5.214e+00
3.087e-02,4.915e+00
3.108e-02,4.632e+00
3.130e-02,4.365e+00
3.151e-02,4.112e+00
3.172e-02,3.874e+00
3.194e-02,3.648e+00
3.215e-02,3.435e+00
3.236e-02,3.234e+00
3.258e-02,3.044e+00
3.279e-02,2.865e+00
3.300e-02,2.697e+00
3.322e-02,2.537e+00
3.343e-02,2.387e+00
3.365e-02,2.245e+00
3.386e-02,2.112e+00
3.407e-02,1.986e+00
3.429e-02,1.868e+00
3.450e-02,1.756e+00
3.471e-02,1.651e+00
3.493e-02,1.552e+00
3.514e-02,1.459e+00
3.535e-02,1.371e+00
3.557e-02,1.289e+00
3.578e-02,1.211e+00
3.599e-02,1.138e+00
3.621e-02,1.069e+00
3.642e-02,1.004e+00
3.664e-02,9.435e-01
3.685e-02,8.863e-01
3.706e-02,8.324e-01
3.728e-02,7.819e-01
3.749e-02,7.343e-01
3.770e-02,6.896e-01
3.792e-02,6.476e-01
3.813e-02,6.081e-01
3.834e-02,5.710e-01
3.856e-02,5.362e-01
3.877e-02,5.034e-01
3.899e-02,4.726e-01
3.920e-02,4.437e-01
3.941e-02,4.166e-01
3.963e-02,3.911e-01
3.984e-02,3.671e-01
4.005e-02,3.446e-01
4.027e-02,3.235e-01
4.048e-02,3.037e-01
4.069e-02,2.850e-01
4.091e-02,2.676e-01
4.112e-02,2.511e-01
4.134e-02,2.357e-01
4.155e-02,2.212e-01
4.176e-02,2.077e-01
4.198e-02,1.949e-01
4.219e-02,1.829e-01
4.240e-02,1.717e-01
4.262e-02,1.612e-01
