transmittance,probability_density
1.495e-03,6.351e+00
4.486e-03,6.944e+00
7.477e-03,6.713e+00
1.047e-02,6.418e+00
1.346e-02,6.160e+00
1.645e-02,5.949e+00
1.944e-02,5.780e+00
2.243e-02,5.644e+00
2.542e-02,5.533e+00
2.841e-02,5.440e+00
3.140e-02,5.358e+00
3.440e-02,5.286e+00
3.739e-02,5.218e+00
4.038e-02,5.155e+00
4.337e-02,5.093e+00
4.636e-02,5.034e+00
4.935e-02,4.977e+00
5.234e-02,4.922e+00
5.533e-02,4.868e+00
5.832e-02,4.817e+00
6.131e-02,4.769e+00
6.430e-02,4.723e+00
6.730e-02,4.680e+00
7.029e-02,4.641e+00
7.328e-02,4.604e+00
7.627e-02,4.570e+00
7.926e-02,4.538e+00
8.225e-02,4.509e+00
8.524e-02,4.481e+00
8.823e-02,4.455e+00
9.122e-02,4.430e+00
9.421e-02,4.406e+00
9.720e-02,4.382e+00
1.002e-01,4.357e+00
1.032e-01,4.331e+00
1.062e-01,4.304e+00
1.092e-01,4.276e+00
1.122e-01,4.245e+00
1.151e-01,4.211e+00
1.181e-01,4.175e+00
1.211e-01,4.136e+00
1.241e-01,4.093e+00
1.271e-01,4.047e+00
1.301e-01,3.998e+00
1.331e-01,3.946e+00
1.361e-01,3.890e+00
1.391e-01,3.831e+00
1.421e-01,3.769e+00
1.451e-01,3.704e+00
1.480e-01,3.636e+00
1.510e-01,3.565e+00
1.540e-01,3.492e+00
1.570e-01,3.417e+00
1.600e-01,3.340e+00
1.630e-01,3.261e+00
1.660e-01,3.181e+00
1.690e-01,3.099e+00
1.720e-01,3.017e+00
1.750e-01,2.934e+00
1.780e-01,2.851e+00
1.809e-01,2.767e+00
1.839e-01,2.683e+00
1.869e-01,2.599e+00
1.899e-01,2.516e+00
1.929e-01,2.434e+00
1.959e-01,2.351e+00
1.989e-01,2.270e+00
2.019e-01,2.190e+00
2.049e-01,2.111e+00
2.079e-01,2.033e+00
2.109e-01,1.956e+00
2.138e-01,1.881e+00
2.168e-01,1.807e+00
2.198e-01,1.735e+00
2.228e-01,1.664e+00
2.258e-01,1.595e+00
2.288e-01,1.527e+00
2.318e-01,1.461e+00
2.348e-01,1.397e+00
2.378e-01,1.335e+00
2.408e-01,1.275e+00
2.438e-01,1.216e+00
2.467e-01,1.159e+00
2.497e-01,1.104e+00
2.527e-01,1.051e+00
2.557e-01,9.997e-01
2.587e-01,9.500e-01
2.617e-01,9.021e-01
2.647e-01,8.560e-01
2.677e-01,8.116e-01
2.707e-01,7.689e-01
2.737e-01,7.279e-01
2.767e-01,6.885e-01
2.796e-01,6.508e-01
2.826e-01,6.146e-01
2.856e-01,5.800e-01
2.886e-01,5.469e-01
2.916e-01,5.153e-01
2.946e-01,4.851e-01
2.976e-01,4.564e-01
3.006e-01,4.290e-01
3.036e-01,4.029e-01
3.066e-01,3.781e-01
3.096e-01,3.546e-01
3.125e-01,3.322e-01
3.155e-01,3.110e-01
3.185e-01,2.910e-01
3.215e-01,2.720e-01
3.245e-01,2.540e-01
3.275e-01,2.370e-01
3.305e-01,2.210e-01
3.335e-01,2.059e-01
3.365e-01,1.917e-01
3.395e-01,1.783e-01
3.425e-01,1.657e-01
3.454e-01,1.539e-01
3.484e-01,1.428e-01
3.514e-01,1.324e-01
3.544e-01,1.227e-01
3.574e-01,1.136e-01
3.604e-01,1.050e-01
3.634e-01,9.706e-02
3.664e-01,8.962e-02
3.694e-01,8.269e-02
3.724e-01,7.622e-02
3.754e-01,7.021e-02
3.783e-01,6.461e-02
3.813e-01,5.941e-02
3.843e-01,5.458e-02
3.873e-01,5.011e-02
3.903e-01,4.596e-02
3.933e-01,4.212e-02
3.963e-01,3.857e-02
3.993e-01,3.528e-02
4.023e-01,3.225e-02
4.053e-01,2.946e-02
4.083e-01,2.688e-02
4.112e-01,2.451e-02
4.142e-01,2.232e-02
4.172e-01,2.032e-02
4.202e-01,1.848e-02
4.232e-01,1.679e-02
4.262e-01,1.524e-02
4.292e-01,1.382e-02
4.322e-01,1.252e-02
4.352e-01,1.134e-02
4.382e-01,1.025e-02
4.412e-01,9.266e-03
4.441e-01,8.366e-03
4.471e-01,7.546e-03
4.501e-01,6.800e-03
4.531e-01,6.122e-03
4.561e-01,5.507e-03
4.591e-01,4.949e-03
4.621e-01,4.443e-03
4.651e-01,3.985e-03
4.681e-01,3.571e-03
4.711e-01,3.197e-03
4.741e-01,2.859e-03
4.770e-01,2.554e-03
4.800e-01,2.280e-03
4.830e-01,2.033e-03
4.860e-01,1.811e-03
4.890e-01,1.611e-03
4.920e-01,1.433e-03
4.950e-01,1.272e-03
4.980e-01,1.129e-03
5.010e-01,1.000e-03
5.040e-01,8.853e-04
5.070e-01,7.829e-04
5.099e-01,6.916e-04
5.129e-01,6.102e-04
5.159e-01,5.379e-04
5.189e-01,4.736e-04
5.219e-01,4.165e-04
5.249e-01,3.659e-04
5.279e-01,3.210e-04
5.309e-01,2.814e-04
5.339e-01,2.463e-04
5.369e-01,2.154e-04
5.399e-01,1.881e-04
5.428e-01,1.641e-04
5.458e-01,1.430e-04
5.488e-01,1.244e-04
5.518e-01,1.081e-04
5.548e-01,9.386e-05
5.578e-01,8.137e-05
5.608e-01,7.045e-05
5.638e-01,6.092e-05
5.668e-01,5.261e-05
5.698e-01,4.537e-05
5.728e-01,3.907e-05
5.757e-01,3.361e-05
5.787e-01,2.887e-05
5.817e-01,2.476e-05
5.847e-01,2.121e-05
5.877e-01,1.814e-05
5.907e-01,1.549e-05
5.937e-01,1.321e-05
5.967e-01,1.125e-05
