transmittance,probability_density
1.277e-04,1.232e+02
3.830e-04,1.236e+02
6.383e-04,1.189e+02
8.936e-04,1.134e+02
1.149e-03,1.082e+02
1.404e-03,1.035e+02
1.660e-03,9.941e+01
1.915e-03,9.588e+01
2.170e-03,9.287e+01
2.425e-03,9.029e+01
2.681e-03,8.809e+01
2.936e-03,8.620e+01
3.191e-03,8.454e+01
3.447e-03,8.308e+01
3.702e-03,8.175e+01
3.957e-03,8.052e+01
4.213e-03,7.935e+01
4.468e-03,7.821e+01
4.723e-03,7.709e+01
4.979e-03,7.595e+01
5.234e-03,7.478e+01
5.489e-03,7.358e+01
5.744e-03,7.234e+01
6.000e-03,7.104e+01
6.255e-03,6.969e+01
6.510e-03,6.828e+01
6.766e-03,6.682e+01
7.021e-03,6.531e+01
7.276e-03,6.375e+01
7.532e-03,6.214e+01
7.787e-03,6.049e+01
8.042e-03,5.881e+01
8.298e-03,5.710e+01
8.553e-03,5.536e+01
8.808e-03,5.361e+01
9.064e-03,5.184e+01
9.319e-03,5.007e+01
9.574e-03,4.830e+01
9.829e-03,4.653e+01
1.008e-02,4.478e+01
1.034e-02,4.304e+01
1.060e-02,4.132e+01
1.085e-02,3.962e+01
1.111e-02,3.795e+01
1.136e-02,3.631e+01
1.162e-02,3.470e+01
1.187e-02,3.313e+01
1.213e-02,3.160e+01
1.238e-02,3.012e+01
1.264e-02,2.867e+01
1.289e-02,2.727e+01
1.315e-02,2.591e+01
1.340e-02,2.460e+01
1.366e-02,2.333e+01
1.391e-02,2.211e+01
1.417e-02,2.094e+01
1.443e-02,1.981e+01
1.468e-02,1.873e+01
1.494e-02,1.769e+01
1.519e-02,1.670e+01
1.545e-02,1.576e+01
1.570e-02,1.485e+01
1.596e-02,1.399e+01
1.621e-02,1.317e+01
1.647e-02,1.239e+01
1.672e-02,1.165e+01
1.698e-02,1.095e+01
1.723e-02,1.028e+01
1.749e-02,9.645e+00
1.774e-02,9.046e+00
1.800e-02,8.479e+00
1.825e-02,7.944e+00
1.851e-02,7.438e+00
1.877e-02,6.960e+00
1.902e-02,6.510e+00
1.928e-02,6.086e+00
1.953e-02,5.687e+00
1.979e-02,5.312e+00
2.004e-02,4.958e+00
2.030e-02,4.627e+00
2.055e-02,4.315e+00
2.081e-02,4.023e+00
2.106e-02,3.749e+00
2.132e-02,3.492e+00
2.157e-02,3.251e+00
2.183e-02,3.025e+00
2.208e-02,2.815e+00
2.234e-02,2.617e+00
2.259e-02,2.433e+00
2.285e-02,2.261e+00
2.311e-02,2.100e+00
2.336e-02,1.950e+00
2.362e-02,1.810e+00
2.387e-02,1.679e+00
2.413e-02,1.558e+00
2.438e-02,1.444e+00
2.464e-02,1.339e+00
2.489e-02,1.241e+00
2.515e-02,1.149e+00
2.540e-02,1.064e+00
2.566e-02,9.852e-01
2.591e-02,9.117e-01
2.617e-02,8.435e-01
2.642e-02,7.802e-01
2.668e-02,7.213e-01
2.694e-02,6.668e-01
2.719e-02,6.162e-01
2.745e-02,5.692e-01
2.770e-02,5.257e-01
2.796e-02,4.854e-01
2.821e-02,4.481e-01
2.847e-02,4.135e-01
2.872e-02,3.815e-01
2.898e-02,3.519e-01
2.923e-02,3.245e-01
2.949e-02,2.991e-01
2.974e-02,2.757e-01
3.000e-02,2.540e-01
3.025e-02,2.340e-01
3.051e-02,2.155e-01
3.076e-02,1.984e-01
3.102e-02,1.827e-01
3.128e-02,1.681e-01
3.153e-02,1.547e-01
3.179e-02,1.423e-01
3.204e-02,1.309e-01
3.230e-02,1.203e-01
3.255e-02,1.106e-01
3.281e-02,1.017e-01
3.306e-02,9.344e-02
3.332e-02,8.585e-02
3.357e-02,7.886e-02
3.383e-02,7.242e-02
3.408e-02,6.649e-02
3.434e-02,6.104e-02
3.459e-02,5.602e-02
3.485e-02,5.140e-02
3.511e-02,4.716e-02
3.536e-02,4.326e-02
3.562e-02,3.967e-02
3.587e-02,3.637e-02
3.613e-02,3.335e-02
3.638e-02,3.056e-02
3.664e-02,2.801e-02
3.689e-02,2.566e-02
3.715e-02,2.351e-02
3.740e-02,2.153e-02
3.766e-02,1.972e-02
3.791e-02,1.805e-02
3.817e-02,1.653e-02
3.842e-02,1.512e-02
3.868e-02,1.384e-02
3.893e-02,1.266e-02
3.919e-02,1.158e-02
3.945e-02,1.060e-02
3.970e-02,9.690e-03
3.996e-02,8.860e-03
4.021e-02,8.100e-03
4.047e-02,7.404e-03
4.072e-02,6.766e-03
4.098e-02,6.183e-03
4.123e-02,5.649e-03
4.149e-02,5.160e-03
4.174e-02,4.713e-03
4.200e-02,4.304e-03
4.225e-02,3.930e-03
4.251e-02,3.587e-03
4.276e-02,3.275e-03
4.302e-02,2.989e-03
4.328e-02,2.727e-03
4.353e-02,2.488e-03
4.379e-02,2.270e-03
4.404e-02,2.070e-03
4.430e-02,1.888e-03
4.455e-02,1.722e-03
4.481e-02,1.570e-03
4.506e-02,1.431e-03
4.532e-02,1.305e-03
4.557e-02,1.189e-03
4.583e-02,1.083e-03
4.608e-02,9.871e-04
4.634e-02,8.993e-04
4.659e-02,8.191e-04
4.685e-02,7.460e-04
4.710e-02,6.794e-04
4.736e-02,6.186e-04
4.762e-02,5.632e-04
4.787e-02,5.127e-04
4.813e-02,4.666e-04
4.838e-02,4.247e-04
4.864e-02,3.864e-04
4.889e-02,3.516e-04
4.915e-02,3.198e-04
4.940e-02,2.909e-04
4.966e-02,2.646e-04
4.991e-02,2.406e-04
5.017e-02,2.188e-04
5.042e-02,1.989e-04
5.068e-02,1.808e-04
5.093e-02,1.644e-04
