transmittance,probability_density
1.308e-04,2.123e+02
3.925e-04,1.689e+02
6.541e-04,1.457e+02
9.157e-04,1.311e+02
1.177e-03,1.209e+02
1.439e-03,1.132e+02
1.701e-03,1.071e+02
1.962e-03,1.022e+02
2.224e-03,9.801e+01
2.486e-03,9.445e+01
2.747e-03,9.135e+01
3.009e-03,8.863e+01
3.270e-03,8.621e+01
3.532e-03,8.402e+01
3.794e-03,8.202e+01
4.055e-03,8.016e+01
4.317e-03,7.840e+01
4.579e-03,7.670e+01
4.840e-03,7.503e+01
5.102e-03,7.339e+01
5.364e-03,7.173e+01
5.625e-03,7.007e+01
5.887e-03,6.837e+01
6.148e-03,6.664e+01
6.410e-03,6.487e+01
6.672e-03,6.307e+01
6.933e-03,6.124e+01
7.195e-03,5.938e+01
7.457e-03,5.749e+01
7.718e-03,5.558e+01
7.980e-03,5.366e+01
8.242e-03,5.174e+01
8.503e-03,4.981e+01
8.765e-03,4.789e+01
9.026e-03,4.599e+01
9.288e-03,4.411e+01
9.550e-03,4.225e+01
9.811e-03,4.042e+01
1.007e-02,3.863e+01
1.033e-02,3.687e+01
1.060e-02,3.516e+01
1.086e-02,3.350e+01
1.112e-02,3.188e+01
1.138e-02,3.031e+01
1.164e-02,2.879e+01
1.190e-02,2.733e+01
1.217e-02,2.591e+01
1.243e-02,2.455e+01
1.269e-02,2.324e+01
1.295e-02,2.199e+01
1.321e-02,2.079e+01
1.347e-02,1.964e+01
1.374e-02,1.854e+01
1.400e-02,1.749e+01
1.426e-02,1.648e+01
1.452e-02,1.553e+01
1.478e-02,1.462e+01
1.504e-02,1.376e+01
1.531e-02,1.294e+01
1.557e-02,1.216e+01
1.583e-02,1.142e+01
1.609e-02,1.072e+01
1.635e-02,1.006e+01
1.661e-02,9.434e+00
1.688e-02,8.842e+00
1.714e-02,8.283e+00
1.740e-02,7.755e+00
1.766e-02,7.258e+00
1.792e-02,6.789e+00
1.818e-02,6.347e+00
1.845e-02,5.931e+00
1.871e-02,5.540e+00
1.897e-02,5.173e+00
1.923e-02,4.827e+00
1.949e-02,4.503e+00
1.975e-02,4.198e+00
2.002e-02,3.913e+00
2.028e-02,3.645e+00
2.054e-02,3.395e+00
2.080e-02,3.160e+00
2.106e-02,2.940e+00
2.132e-02,2.735e+00
2.158e-02,2.543e+00
2.185e-02,2.363e+00
2.211e-02,2.196e+00
2.237e-02,2.039e+00
2.263e-02,1.893e+00
2.289e-02,1.757e+00
2.315e-02,1.630e+00
2.342e-02,1.511e+00
2.368e-02,1.401e+00
2.394e-02,1.298e+00
2.420e-02,1.203e+00
2.446e-02,1.114e+00
2.472e-02,1.031e+00
2.499e-02,9.546e-01
2.525e-02,8.832e-01
2.551e-02,8.170e-01
2.577e-02,7.554e-01
2.603e-02,6.983e-01
2.629e-02,6.453e-01
2.656e-02,5.962e-01
2.682e-02,5.506e-01
2.708e-02,5.084e-01
2.734e-02,4.693e-01
2.760e-02,4.330e-01
2.786e-02,3.995e-01
2.813e-02,3.684e-01
2.839e-02,3.397e-01
2.865e-02,3.132e-01
2.891e-02,2.886e-01
2.917e-02,2.659e-01
2.943e-02,2.449e-01
2.970e-02,2.255e-01
2.996e-02,2.076e-01
3.022e-02,1.911e-01
3.048e-02,1.759e-01
3.074e-02,1.618e-01
3.100e-02,1.488e-01
3.127e-02,1.369e-01
3.153e-02,1.258e-01
3.179e-02,1.156e-01
3.205e-02,1.063e-01
3.231e-02,9.764e-02
3.257e-02,8.969e-02
3.284e-02,8.237e-02
3.310e-02,7.563e-02
3.336e-02,6.943e-02
3.362e-02,6.372e-02
3.388e-02,5.847e-02
3.414e-02,5.364e-02
3.441e-02,4.920e-02
3.467e-02,4.512e-02
3.493e-02,4.137e-02
3.519e-02,3.793e-02
3.545e-02,3.476e-02
3.571e-02,3.186e-02
3.597e-02,2.919e-02
3.624e-02,2.674e-02
3.650e-02,2.449e-02
3.676e-02,2.242e-02
3.702e-02,2.053e-02
3.728e-02,1.879e-02
3.754e-02,1.720e-02
3.781e-02,1.574e-02
3.807e-02,1.440e-02
3.833e-02,1.317e-02
3.859e-02,1.205e-02
3.885e-02,1.102e-02
3.911e-02,1.007e-02
3.938e-02,9.210e-03
3.964e-02,8.418e-03
3.990e-02,7.694e-03
4.016e-02,7.030e-03
4.042e-02,6.423e-03
4.068e-02,5.867e-03
4.095e-02,5.359e-03
4.121e-02,4.894e-03
4.147e-02,4.468e-03
4.173e-02,4.079e-03
4.199e-02,3.724e-03
4.225e-02,3.398e-03
4.252e-02,3.101e-03
4.278e-02,2.830e-03
4.304e-02,2.582e-03
4.330e-02,2.355e-03
4.356e-02,2.148e-03
4.382e-02,1.959e-03
4.409e-02,1.786e-03
4.435e-02,1.628e-03
4.461e-02,1.484e-03
4.487e-02,1.353e-03
4.513e-02,1.233e-03
4.539e-02,1.123e-03
4.566e-02,1.023e-03
4.592e-02,9.322e-04
4.618e-02,8.491e-04
4.644e-02,7.733e-04
4.670e-02,7.042e-04
4.696e-02,6.412e-04
4.723e-02,5.838e-04
4.749e-02,5.314e-04
4.775e-02,4.837e-04
4.801e-02,4.402e-04
4.827e-02,4.006e-04
4.853e-02,3.645e-04
4.879e-02,3.316e-04
4.906e-02,3.016e-04
4.932e-02,2.743e-04
4.958e-02,2.495e-04
4.984e-02,2.269e-04
5.010e-02,2.063e-04
5.036e-02,1.875e-04
5.063e-02,1.705e-04
5.089e-02,1.550e-04
5.115e-02,1.408e-04
5.141e-02,1.280e-04
5.167e-02,1.163e-04
5.193e-02,1.057e-04
5.220e-02,9.598e-05
