transmittance,probability_density
6.600e-04,3.013e+01
1.980e-03,2.647e+01
3.300e-03,2.361e+01
4.620e-03,2.164e+01
5.940e-03,2.021e+01
7.260e-03,1.912e+01
8.580e-03,1.825e+01
9.900e-03,1.753e+01
1.122e-02,1.691e+01
1.254e-02,1.637e+01
1.386e-02,1.590e+01
1.518e-02,1.547e+01
1.650e-02,1.509e+01
1.782e-02,1.474e+01
1.914e-02,1.443e+01
2.046e-02,1.415e+01
2.178e-02,1.389e+01
2.310e-02,1.366e+01
2.442e-02,1.344e+01
2.574e-02,1.323e+01
2.706e-02,1.304e+01
2.838e-02,1.285e+01
2.970e-02,1.267e+01
3.102e-02,1.249e+01
3.234e-02,1.231e+01
3.366e-02,1.212e+01
3.498e-02,1.193e+01
3.630e-02,1.173e+01
3.762e-02,1.152e+01
3.894e-02,1.131e+01
4.026e-02,1.108e+01
4.158e-02,1.085e+01
4.290e-02,1.061e+01
4.422e-02,1.037e+01
4.554e-02,1.011e+01
4.686e-02,9.852e+00
4.818e-02,9.586e+00
4.950e-02,9.315e+00
5.082e-02,9.041e+00
5.214e-02,8.764e+00
5.346e-02,8.486e+00
5.478e-02,8.207e+00
5.610e-02,7.928e+00
5.742e-02,7.650e+00
5.874e-02,7.373e+00
6.006e-02,7.099e+00
6.138e-02,6.829e+00
6.270e-02,6.562e+00
6.402e-02,6.299e+00
6.534e-02,6.042e+00
6.666e-02,5.789e+00
6.798e-02,5.543e+00
6.930e-02,5.302e+00
7.062e-02,5.067e+00
7.194e-02,4.839e+00
7.326e-02,4.618e+00
7.458e-02,4.403e+00
7.590e-02,4.195e+00
7.722e-02,3.994e+00
7.854e-02,3.799e+00
7.986e-02,3.612e+00
8.118e-02,3.431e+00
8.250e-02,3.258e+00
8.382e-02,3.091e+00
8.514e-02,2.930e+00
8.646e-02,2.776e+00
8.778e-02,2.629e+00
8.910e-02,2.487e+00
9.042e-02,2.352e+00
9.174e-02,2.223e+00
9.306e-02,2.100e+00
9.438e-02,1.982e+00
9.570e-02,1.870e+00
9.702e-02,1.763e+00
9.834e-02,1.661e+00
9.966e-02,1.564e+00
1.010e-01,1.472e+00
1.023e-01,1.384e+00
1.036e-01,1.301e+00
1.049e-01,1.223e+00
1.063e-01,1.148e+00
1.076e-01,1.078e+00
1.089e-01,1.011e+00
1.102e-01,9.477e-01
1.115e-01,8.879e-01
1.129e-01,8.316e-01
1.142e-01,7.783e-01
1.155e-01,7.281e-01
1.168e-01,6.808e-01
1.181e-01,6.363e-01
1.195e-01,5.943e-01
1.208e-01,5.549e-01
1.221e-01,5.178e-01
1.234e-01,4.829e-01
1.247e-01,4.502e-01
1.261e-01,4.195e-01
1.274e-01,3.906e-01
1.287e-01,3.636e-01
1.300e-01,3.383e-01
1.313e-01,3.146e-01
1.327e-01,2.925e-01
1.340e-01,2.717e-01
1.353e-01,2.524e-01
1.366e-01,2.343e-01
1.379e-01,2.174e-01
1.393e-01,2.016e-01
1.406e-01,1.869e-01
1.419e-01,1.731e-01
1.432e-01,1.604e-01
1.445e-01,1.485e-01
1.459e-01,1.374e-01
1.472e-01,1.271e-01
1.485e-01,1.175e-01
1.498e-01,1.086e-01
1.511e-01,1.003e-01
1.525e-01,9.264e-02
1.538e-01,8.551e-02
1.551e-01,7.890e-02
1.564e-01,7.276e-02
1.577e-01,6.708e-02
1.591e-01,6.182e-02
1.604e-01,5.694e-02
1.617e-01,5.243e-02
1.630e-01,4.826e-02
1.643e-01,4.440e-02
1.657e-01,4.084e-02
1.670e-01,3.755e-02
1.683e-01,3.450e-02
1.696e-01,3.170e-02
1.709e-01,2.911e-02
1.723e-01,2.672e-02
1.736e-01,2.452e-02
1.749e-01,2.249e-02
1.762e-01,2.062e-02
1.775e-01,1.890e-02
1.789e-01,1.732e-02
1.802e-01,1.586e-02
1.815e-01,1.452e-02
1.828e-01,1.329e-02
1.841e-01,1.216e-02
1.855e-01,1.112e-02
1.868e-01,1.017e-02
1.881e-01,9.290e-03
1.894e-01,8.487e-03
1.907e-01,7.751e-03
1.921e-01,7.076e-03
1.934e-01,6.457e-03
1.947e-01,5.891e-03
1.960e-01,5.372e-03
1.973e-01,4.897e-03
1.987e-01,4.463e-03
2.000e-01,4.066e-03
2.013e-01,3.703e-03
2.026e-01,3.371e-03
2.039e-01,3.068e-03
2.053e-01,2.791e-03
2.066e-01,2.538e-03
2.079e-01,2.307e-03
2.092e-01,2.097e-03
2.105e-01,1.905e-03
2.119e-01,1.730e-03
2.132e-01,1.571e-03
2.145e-01,1.426e-03
2.158e-01,1.294e-03
2.171e-01,1.173e-03
2.185e-01,1.064e-03
2.198e-01,9.641e-04
2.211e-01,8.736e-04
2.224e-01,7.913e-04
2.237e-01,7.165e-04
2.251e-01,6.485e-04
2.264e-01,5.868e-04
2.277e-01,5.308e-04
2.290e-01,4.800e-04
2.303e-01,4.339e-04
2.317e-01,3.921e-04
2.330e-01,3.542e-04
2.343e-01,3.199e-04
2.356e-01,2.888e-04
2.369e-01,2.607e-04
2.383e-01,2.352e-04
2.396e-01,2.121e-04
2.409e-01,1.912e-04
2.422e-01,1.724e-04
2.435e-01,1.553e-04
2.449e-01,1.399e-04
2.462e-01,1.260e-04
2.475e-01,1.134e-04
2.488e-01,1.020e-04
2.501e-01,9.179e-05
2.515e-01,8.254e-05
2.528e-01,7.420e-05
2.541e-01,6.669e-05
2.554e-01,5.991e-05
2.567e-01,5.381e-05
2.581e-01,4.831e-05
2.594e-01,4.336e-05
2.607e-01,3.891e-05
2.620e-01,3.490e-05
2.633e-01,3.129e-05
