transmittance,probability_density
8.762e-04,1.952e+01
2.628e-03,1.794e+01
4.381e-03,1.627e+01
6.133e-03,1.504e+01
7.885e-03,1.413e+01
9.638e-03,1.343e+01
1.139e-02,1.287e+01
1.314e-02,1.241e+01
1.489e-02,1.202e+01
1.665e-02,1.167e+01
1.840e-02,1.136e+01
2.015e-02,1.108e+01
2.190e-02,1.083e+01
2.366e-02,1.060e+01
2.541e-02,1.038e+01
2.716e-02,1.019e+01
2.891e-02,1.001e+01
3.067e-02,9.853e+00
3.242e-02,9.705e+00
3.417e-02,9.569e+00
3.592e-02,9.443e+00
3.767e-02,9.324e+00
3.943e-02,9.211e+00
4.118e-02,9.102e+00
4.293e-02,8.994e+00
4.468e-02,8.887e+00
4.644e-02,8.778e+00
4.819e-02,8.667e+00
4.994e-02,8.551e+00
5.169e-02,8.431e+00
5.345e-02,8.305e+00
5.520e-02,8.173e+00
5.695e-02,8.035e+00
5.870e-02,7.890e+00
6.045e-02,7.739e+00
6.221e-02,7.582e+00
6.396e-02,7.418e+00
6.571e-02,7.250e+00
6.746e-02,7.076e+00
6.922e-02,6.899e+00
7.097e-02,6.717e+00
7.272e-02,6.532e+00
7.447e-02,6.345e+00
7.623e-02,6.157e+00
7.798e-02,5.967e+00
7.973e-02,5.776e+00
8.148e-02,5.585e+00
8.323e-02,5.395e+00
8.499e-02,5.207e+00
8.674e-02,5.019e+00
8.849e-02,4.834e+00
9.024e-02,4.651e+00
9.200e-02,4.471e+00
9.375e-02,4.294e+00
9.550e-02,4.121e+00
9.725e-02,3.951e+00
9.900e-02,3.785e+00
1.008e-01,3.622e+00
1.025e-01,3.465e+00
1.043e-01,3.311e+00
1.060e-01,3.162e+00
1.078e-01,3.017e+00
1.095e-01,2.876e+00
1.113e-01,2.741e+00
1.130e-01,2.609e+00
1.148e-01,2.483e+00
1.165e-01,2.360e+00
1.183e-01,2.243e+00
1.200e-01,2.129e+00
1.218e-01,2.020e+00
1.235e-01,1.916e+00
1.253e-01,1.815e+00
1.270e-01,1.719e+00
1.288e-01,1.627e+00
1.305e-01,1.538e+00
1.323e-01,1.454e+00
1.341e-01,1.373e+00
1.358e-01,1.296e+00
1.376e-01,1.223e+00
1.393e-01,1.153e+00
1.411e-01,1.086e+00
1.428e-01,1.022e+00
1.446e-01,9.621e-01
1.463e-01,9.048e-01
1.481e-01,8.504e-01
1.498e-01,7.988e-01
1.516e-01,7.499e-01
1.533e-01,7.035e-01
1.551e-01,6.597e-01
1.568e-01,6.182e-01
1.586e-01,5.789e-01
1.603e-01,5.419e-01
1.621e-01,5.069e-01
1.638e-01,4.739e-01
1.656e-01,4.429e-01
1.673e-01,4.136e-01
1.691e-01,3.860e-01
1.708e-01,3.601e-01
1.726e-01,3.357e-01
1.744e-01,3.128e-01
1.761e-01,2.914e-01
1.779e-01,2.712e-01
1.796e-01,2.523e-01
1.814e-01,2.346e-01
1.831e-01,2.180e-01
1.849e-01,2.025e-01
1.866e-01,1.880e-01
1.884e-01,1.744e-01
1.901e-01,1.617e-01
1.919e-01,1.499e-01
1.936e-01,1.389e-01
1.954e-01,1.286e-01
1.971e-01,1.190e-01
1.989e-01,1.101e-01
2.006e-01,1.018e-01
2.024e-01,9.403e-02
2.041e-01,8.684e-02
2.059e-01,8.016e-02
2.076e-01,7.396e-02
2.094e-01,6.821e-02
2.112e-01,6.287e-02
2.129e-01,5.792e-02
2.147e-01,5.334e-02
2.164e-01,4.909e-02
2.182e-01,4.516e-02
2.199e-01,4.153e-02
2.217e-01,3.816e-02
2.234e-01,3.506e-02
2.252e-01,3.219e-02
2.269e-01,2.954e-02
2.287e-01,2.710e-02
2.304e-01,2.485e-02
2.322e-01,2.277e-02
2.339e-01,2.086e-02
2.357e-01,1.910e-02
2.374e-01,1.748e-02
2.392e-01,1.599e-02
2.409e-01,1.462e-02
2.427e-01,1.336e-02
2.444e-01,1.220e-02
2.462e-01,1.114e-02
2.480e-01,1.017e-02
2.497e-01,9.277e-03
2.515e-01,8.458e-03
2.532e-01,7.709e-03
2.550e-01,7.023e-03
2.567e-01,6.394e-03
2.585e-01,5.820e-03
2.602e-01,5.294e-03
2.620e-01,4.814e-03
2.637e-01,4.376e-03
2.655e-01,3.975e-03
2.672e-01,3.610e-03
2.690e-01,3.277e-03
2.707e-01,2.973e-03
2.725e-01,2.696e-03
2.742e-01,2.444e-03
2.760e-01,2.214e-03
2.777e-01,2.005e-03
2.795e-01,1.815e-03
2.812e-01,1.642e-03
2.830e-01,1.485e-03
2.847e-01,1.343e-03
2.865e-01,1.213e-03
2.883e-01,1.096e-03
2.900e-01,9.893e-04
2.918e-01,8.927e-04
2.935e-01,8.052e-04
2.953e-01,7.259e-04
2.970e-01,6.542e-04
2.988e-01,5.893e-04
3.005e-01,5.305e-04
3.023e-01,4.775e-04
3.040e-01,4.295e-04
3.058e-01,3.862e-04
3.075e-01,3.471e-04
3.093e-01,3.118e-04
3.110e-01,2.799e-04
3.128e-01,2.513e-04
3.145e-01,2.254e-04
3.163e-01,2.021e-04
3.180e-01,1.811e-04
3.198e-01,1.623e-04
3.215e-01,1.453e-04
3.233e-01,1.301e-04
3.251e-01,1.164e-04
3.268e-01,1.041e-04
3.286e-01,9.301e-05
3.303e-01,8.310e-05
3.321e-01,7.421e-05
3.338e-01,6.624e-05
3.356e-01,5.909e-05
3.373e-01,5.270e-05
3.391e-01,4.697e-05
3.408e-01,4.185e-05
3.426e-01,3.727e-05
3.443e-01,3.317e-05
3.461e-01,2.951e-05
3.478e-01,2.624e-05
3.496e-01,2.333e-05
