transmittance,probability_density
1.682e-03,4.467e+00
5.047e-03,5.224e+00
8.412e-03,5.189e+00
1.178e-02,5.035e+00
1.514e-02,4.876e+00
1.851e-02,4.738e+00
2.187e-02,4.623e+00
2.524e-02,4.530e+00
2.860e-02,4.456e+00
3.197e-02,4.396e+00
3.533e-02,4.347e+00
3.870e-02,4.306e+00
4.206e-02,4.269e+00
4.543e-02,4.234e+00
4.879e-02,4.202e+00
5.216e-02,4.170e+00
5.552e-02,4.138e+00
5.889e-02,4.106e+00
6.225e-02,4.074e+00
6.562e-02,4.042e+00
6.898e-02,4.011e+00
7.235e-02,3.980e+00
7.571e-02,3.951e+00
7.908e-02,3.922e+00
8.244e-02,3.895e+00
8.580e-02,3.870e+00
8.917e-02,3.846e+00
9.253e-02,3.824e+00
9.590e-02,3.804e+00
9.926e-02,3.785e+00
1.026e-01,3.768e+00
1.060e-01,3.752e+00
1.094e-01,3.736e+00
1.127e-01,3.722e+00
1.161e-01,3.708e+00
1.195e-01,3.693e+00
1.228e-01,3.679e+00
1.262e-01,3.664e+00
1.295e-01,3.647e+00
1.329e-01,3.630e+00
1.363e-01,3.610e+00
1.396e-01,3.589e+00
1.430e-01,3.566e+00
1.464e-01,3.540e+00
1.497e-01,3.512e+00
1.531e-01,3.480e+00
1.565e-01,3.447e+00
1.598e-01,3.410e+00
1.632e-01,3.370e+00
1.666e-01,3.328e+00
1.699e-01,3.283e+00
1.733e-01,3.235e+00
1.767e-01,3.184e+00
1.800e-01,3.131e+00
1.834e-01,3.076e+00
1.868e-01,3.018e+00
1.901e-01,2.959e+00
1.935e-01,2.897e+00
1.968e-01,2.834e+00
2.002e-01,2.770e+00
2.036e-01,2.704e+00
2.069e-01,2.637e+00
2.103e-01,2.570e+00
2.137e-01,2.501e+00
2.170e-01,2.433e+00
2.204e-01,2.363e+00
2.238e-01,2.294e+00
2.271e-01,2.225e+00
2.305e-01,2.156e+00
2.339e-01,2.087e+00
2.372e-01,2.019e+00
2.406e-01,1.951e+00
2.440e-01,1.884e+00
2.473e-01,1.818e+00
2.507e-01,1.752e+00
2.540e-01,1.688e+00
2.574e-01,1.624e+00
2.608e-01,1.562e+00
2.641e-01,1.501e+00
2.675e-01,1.441e+00
2.709e-01,1.382e+00
2.742e-01,1.325e+00
2.776e-01,1.268e+00
2.810e-01,1.214e+00
2.843e-01,1.160e+00
2.877e-01,1.109e+00
2.911e-01,1.058e+00
2.944e-01,1.009e+00
2.978e-01,9.618e-01
3.012e-01,9.158e-01
3.045e-01,8.712e-01
3.079e-01,8.282e-01
3.113e-01,7.866e-01
3.146e-01,7.464e-01
3.180e-01,7.077e-01
3.213e-01,6.704e-01
3.247e-01,6.346e-01
3.281e-01,6.001e-01
3.314e-01,5.671e-01
3.348e-01,5.353e-01
3.382e-01,5.050e-01
3.415e-01,4.759e-01
3.449e-01,4.481e-01
3.483e-01,4.215e-01
3.516e-01,3.962e-01
3.550e-01,3.720e-01
3.584e-01,3.490e-01
3.617e-01,3.272e-01
3.651e-01,3.064e-01
3.685e-01,2.867e-01
3.718e-01,2.680e-01
3.752e-01,2.503e-01
3.786e-01,2.335e-01
3.819e-01,2.177e-01
3.853e-01,2.027e-01
3.886e-01,1.886e-01
3.920e-01,1.753e-01
3.954e-01,1.628e-01
3.987e-01,1.511e-01
4.021e-01,1.400e-01
4.055e-01,1.297e-01
4.088e-01,1.200e-01
4.122e-01,1.109e-01
4.156e-01,1.024e-01
4.189e-01,9.444e-02
4.223e-01,8.703e-02
4.257e-01,8.012e-02
4.290e-01,7.369e-02
4.324e-01,6.770e-02
4.358e-01,6.214e-02
4.391e-01,5.698e-02
4.425e-01,5.219e-02
4.458e-01,4.776e-02
4.492e-01,4.366e-02
4.526e-01,3.987e-02
4.559e-01,3.637e-02
4.593e-01,3.314e-02
4.627e-01,3.017e-02
4.660e-01,2.744e-02
4.694e-01,2.492e-02
4.728e-01,2.261e-02
4.761e-01,2.050e-02
4.795e-01,1.856e-02
4.829e-01,1.679e-02
4.862e-01,1.516e-02
4.896e-01,1.368e-02
4.930e-01,1.234e-02
4.963e-01,1.111e-02
4.997e-01,9.988e-03
5.031e-01,8.972e-03
5.064e-01,8.050e-03
5.098e-01,7.215e-03
5.131e-01,6.458e-03
5.165e-01,5.774e-03
5.199e-01,5.156e-03
5.232e-01,4.598e-03
5.266e-01,4.096e-03
5.300e-01,3.644e-03
5.333e-01,3.238e-03
5.367e-01,2.873e-03
5.401e-01,2.546e-03
5.434e-01,2.254e-03
5.468e-01,1.992e-03
5.502e-01,1.758e-03
5.535e-01,1.550e-03
5.569e-01,1.365e-03
5.603e-01,1.200e-03
5.636e-01,1.053e-03
5.670e-01,9.232e-04
5.704e-01,8.081e-04
5.737e-01,7.064e-04
5.771e-01,6.165e-04
5.804e-01,5.373e-04
5.838e-01,4.676e-04
5.872e-01,4.062e-04
5.905e-01,3.524e-04
5.939e-01,3.052e-04
5.973e-01,2.639e-04
6.006e-01,2.279e-04
6.040e-01,1.964e-04
6.074e-01,1.690e-04
6.107e-01,1.452e-04
6.141e-01,1.245e-04
6.175e-01,1.066e-04
6.208e-01,9.107e-05
6.242e-01,7.768e-05
6.276e-01,6.614e-05
6.309e-01,5.621e-05
6.343e-01,4.768e-05
6.376e-01,4.036e-05
6.410e-01,3.411e-05
6.444e-01,2.876e-05
6.477e-01,2.420e-05
6.511e-01,2.033e-05
6.545e-01,1.703e-05
6.578e-01,1.425e-05
6.612e-01,1.189e-05
6.646e-01,9.897e-06
6.679e-01,8.222e-06
6.713e-01,6.815e-06
