transmittance,probability_density
2.500e-03,6.890e-02
7.500e-03,2.207e-01
1.250e-02,3.378e-01
1.750e-02,4.213e-01
2.250e-02,4.807e-01
2.750e-02,5.242e-01
3.250e-02,5.576e-01
3.750e-02,5.846e-01
4.250e-02,6.076e-01
4.750e-02,6.284e-01
5.250e-02,6.479e-01
5.750e-02,6.669e-01
6.250e-02,6.859e-01
6.750e-02,7.049e-01
7.250e-02,7.241e-01
7.750e-02,7.431e-01
8.250e-02,7.616e-01
8.750e-02,7.794e-01
9.250e-02,7.960e-01
9.750e-02,8.112e-01
1.025e-01,8.249e-01
1.075e-01,8.370e-01
1.125e-01,8.475e-01
1.175e-01,8.566e-01
1.225e-01,8.646e-01
1.275e-01,8.719e-01
1.325e-01,8.788e-01
1.375e-01,8.856e-01
1.425e-01,8.928e-01
1.475e-01,9.006e-01
1.525e-01,9.094e-01
1.575e-01,9.193e-01
1.625e-01,9.304e-01
1.675e-01,9.428e-01
1.725e-01,9.565e-01
1.775e-01,9.715e-01
1.825e-01,9.877e-01
1.875e-01,1.005e+00
1.925e-01,1.023e+00
1.975e-01,1.042e+00
2.025e-01,1.062e+00
2.075e-01,1.082e+00
2.125e-01,1.103e+00
2.175e-01,1.124e+00
2.225e-01,1.145e+00
2.275e-01,1.166e+00
2.325e-01,1.187e+00
2.375e-01,1.207e+00
2.425e-01,1.228e+00
2.475e-01,1.248e+00
2.525e-01,1.268e+00
2.575e-01,1.287e+00
2.625e-01,1.305e+00
2.675e-01,1.324e+00
2.725e-01,1.341e+00
2.775e-01,1.358e+00
2.825e-01,1.375e+00
2.875e-01,1.391e+00
2.925e-01,1.406e+00
2.975e-01,1.421e+00
3.025e-01,1.436e+00
3.075e-01,1.449e+00
3.125e-01,1.463e+00
3.175e-01,1.476e+00
3.225e-01,1.488e+00
3.275e-01,1.500e+00
3.325e-01,1.512e+00
3.375e-01,1.523e+00
3.425e-01,1.534e+00
3.475e-01,1.545e+00
3.525e-01,1.556e+00
3.575e-01,1.567e+00
3.625e-01,1.578e+00
3.675e-01,1.589e+00
3.725e-01,1.600e+00
3.775e-01,1.611e+00
3.825e-01,1.623e+00
3.875e-01,1.635e+00
3.925e-01,1.647e+00
3.975e-01,1.660e+00
4.025e-01,1.672e+00
4.075e-01,1.686e+00
4.125e-01,1.699e+00
4.175e-01,1.713e+00
4.225e-01,1.727e+00
4.275e-01,1.741e+00
4.325e-01,1.756e+00
4.375e-01,1.770e+00
4.425e-01,1.784e+00
4.475e-01,1.799e+00
4.525e-01,1.813e+00
4.575e-01,1.827e+00
4.625e-01,1.841e+00
4.675e-01,1.855e+00
4.725e-01,1.868e+00
4.775e-01,1.880e+00
4.825e-01,1.892e+00
4.875e-01,1.904e+00
4.925e-01,1.914e+00
4.975e-01,1.924e+00
5.025e-01,1.932e+00
5.075e-01,1.940e+00
5.125e-01,1.946e+00
5.175e-01,1.951e+00
5.225e-01,1.954e+00
5.275e-01,1.956e+00
5.325e-01,1.957e+00
5.375e-01,1.956e+00
5.425e-01,1.953e+00
5.475e-01,1.948e+00
5.525e-01,1.942e+00
5.575e-01,1.933e+00
5.625e-01,1.923e+00
5.675e-01,1.911e+00
5.725e-01,1.896e+00
5.775e-01,1.880e+00
5.825e-01,1.861e+00
5.875e-01,1.841e+00
5.925e-01,1.818e+00
5.975e-01,1.793e+00
6.025e-01,1.767e+00
6.075e-01,1.738e+00
6.125e-01,1.707e+00
6.175e-01,1.675e+00
6.225e-01,1.641e+00
6.275e-01,1.605e+00
6.325e-01,1.567e+00
6.375e-01,1.528e+00
6.425e-01,1.487e+00
6.475e-01,1.445e+00
6.525e-01,1.401e+00
6.575e-01,1.357e+00
6.625e-01,1.311e+00
6.675e-01,1.265e+00
6.725e-01,1.217e+00
6.775e-01,1.169e+00
6.825e-01,1.121e+00
6.875e-01,1.072e+00
6.925e-01,1.023e+00
6.975e-01,9.744e-01
7.025e-01,9.255e-01
7.075e-01,8.769e-01
7.125e-01,8.287e-01
7.175e-01,7.811e-01
7.225e-01,7.341e-01
7.275e-01,6.879e-01
7.325e-01,6.428e-01
7.375e-01,5.987e-01
7.425e-01,5.558e-01
7.475e-01,5.143e-01
7.525e-01,4.742e-01
7.575e-01,4.357e-01
7.625e-01,3.987e-01
7.675e-01,3.635e-01
7.725e-01,3.300e-01
7.775e-01,2.983e-01
7.825e-01,2.684e-01
7.875e-01,2.404e-01
7.925e-01,2.143e-01
7.975e-01,1.900e-01
8.025e-01,1.676e-01
8.075e-01,1.470e-01
8.125e-01,1.281e-01
8.175e-01,1.110e-01
8.225e-01,9.551e-02
8.275e-01,8.163e-02
8.325e-01,6.925e-02
8.375e-01,5.830e-02
8.425e-01,4.868e-02
8.475e-01,4.029e-02
8.525e-01,3.304e-02
8.575e-01,2.682e-02
8.625e-01,2.155e-02
8.675e-01,1.712e-02
8.725e-01,1.343e-02
8.775e-01,1.040e-02
8.825e-01,7.942e-03
8.875e-01,5.971e-03
8.925e-01,4.415e-03
8.975e-01,3.206e-03
9.025e-01,2.281e-03
9.075e-01,1.588e-03
9.125e-01,1.078e-03
9.175e-01,7.125e-04
9.225e-01,4.566e-04
9.275e-01,2.826e-04
9.325e-01,1.681e-04
9.375e-01,9.553e-05
9.425e-01,5.148e-05
9.475e-01,2.605e-05
9.525e-01,1.223e-05
9.575e-01,5.235e-06
9.625e-01,1.998e-06
9.675e-01,6.582e-07
9.725e-01,1.781e-07
9.775e-01,3.658e-08
9.825e-01,4.965e-09
9.875e-01,3.361e-10
9.925e-01,5.493e-12
9.975e-01,7.585e-16
