transmittance,probability_density
2.500e-03,1.864e-03
7.500e-03,1.518e-02
1.250e-02,3.721e-02
1.750e-02,6.337e-02
2.250e-02,9.027e-02
2.750e-02,1.158e-01
3.250e-02,1.389e-01
3.750e-02,1.593e-01
4.250e-02,1.770e-01
4.750e-02,1.924e-01
5.250e-02,2.058e-01
5.750e-02,2.177e-01
6.250e-02,2.285e-01
6.750e-02,2.386e-01
7.250e-02,2.481e-01
7.750e-02,2.572e-01
8.250e-02,2.662e-01
8.750e-02,2.751e-01
9.250e-02,2.839e-01
9.750e-02,2.926e-01
1.025e-01,3.013e-01
1.075e-01,3.100e-01
1.125e-01,3.185e-01
1.175e-01,3.270e-01
1.225e-01,3.354e-01
1.275e-01,3.437e-01
1.325e-01,3.521e-01
1.375e-01,3.605e-01
1.425e-01,3.691e-01
1.475e-01,3.780e-01
1.525e-01,3.873e-01
1.575e-01,3.971e-01
1.625e-01,4.075e-01
1.675e-01,4.186e-01
1.725e-01,4.303e-01
1.775e-01,4.426e-01
1.825e-01,4.555e-01
1.875e-01,4.688e-01
1.925e-01,4.824e-01
1.975e-01,4.961e-01
2.025e-01,5.096e-01
2.075e-01,5.227e-01
2.125e-01,5.352e-01
2.175e-01,5.469e-01
2.225e-01,5.577e-01
2.275e-01,5.674e-01
2.325e-01,5.761e-01
2.375e-01,5.837e-01
2.425e-01,5.902e-01
2.475e-01,5.960e-01
2.525e-01,6.011e-01
2.575e-01,6.057e-01
2.625e-01,6.102e-01
2.675e-01,6.147e-01
2.725e-01,6.195e-01
2.775e-01,6.250e-01
2.825e-01,6.312e-01
2.875e-01,6.383e-01
2.925e-01,6.466e-01
2.975e-01,6.561e-01
3.025e-01,6.668e-01
3.075e-01,6.788e-01
3.125e-01,6.921e-01
3.175e-01,7.066e-01
3.225e-01,7.222e-01
3.275e-01,7.388e-01
3.325e-01,7.564e-01
3.375e-01,7.747e-01
3.425e-01,7.937e-01
3.475e-01,8.132e-01
3.525e-01,8.332e-01
3.575e-01,8.536e-01
3.625e-01,8.742e-01
3.675e-01,8.950e-01
3.725e-01,9.159e-01
3.775e-01,9.369e-01
3.825e-01,9.579e-01
3.875e-01,9.789e-01
3.925e-01,9.999e-01
3.975e-01,1.021e+00
4.025e-01,1.042e+00
4.075e-01,1.062e+00
4.125e-01,1.083e+00
4.175e-01,1.104e+00
4.225e-01,1.124e+00
4.275e-01,1.144e+00
4.325e-01,1.164e+00
4.375e-01,1.184e+00
4.425e-01,1.204e+00
4.475e-01,1.223e+00
4.525e-01,1.243e+00
4.575e-01,1.262e+00
4.625e-01,1.281e+00
4.675e-01,1.300e+00
4.725e-01,1.319e+00
4.775e-01,1.338e+00
4.825e-01,1.357e+00
4.875e-01,1.376e+00
4.925e-01,1.394e+00
4.975e-01,1.413e+00
5.025e-01,1.433e+00
5.075e-01,1.452e+00
5.125e-01,1.471e+00
5.175e-01,1.491e+00
5.225e-01,1.511e+00
5.275e-01,1.532e+00
5.325e-01,1.553e+00
5.375e-01,1.574e+00
5.425e-01,1.596e+00
5.475e-01,1.618e+00
5.525e-01,1.641e+00
5.575e-01,1.665e+00
5.625e-01,1.690e+00
5.675e-01,1.715e+00
5.725e-01,1.740e+00
5.775e-01,1.767e+00
5.825e-01,1.794e+00
5.875e-01,1.822e+00
5.925e-01,1.850e+00
5.975e-01,1.879e+00
6.025e-01,1.909e+00
6.075e-01,1.939e+00
6.125e-01,1.970e+00
6.175e-01,2.001e+00
6.225e-01,2.032e+00
6.275e-01,2.063e+00
6.325e-01,2.095e+00
6.375e-01,2.126e+00
6.425e-01,2.156e+00
6.475e-01,2.186e+00
6.525e-01,2.215e+00
6.575e-01,2.243e+00
6.625e-01,2.270e+00
6.675e-01,2.296e+00
6.725e-01,2.319e+00
6.775e-01,2.341e+00
6.825e-01,2.360e+00
6.875e-01,2.377e+00
6.925e-01,2.391e+00
6.975e-01,2.402e+00
7.025e-01,2.409e+00
7.075e-01,2.413e+00
7.125e-01,2.413e+00
7.175e-01,2.408e+00
7.225e-01,2.399e+00
7.275e-01,2.385e+00
7.325e-01,2.366e+00
7.375e-01,2.342e+00
7.425e-01,2.313e+00
7.475e-01,2.279e+00
7.525e-01,2.239e+00
7.575e-01,2.194e+00
7.625e-01,2.143e+00
7.675e-01,2.087e+00
7.725e-01,2.026e+00
7.775e-01,1.959e+00
7.825e-01,1.888e+00
7.875e-01,1.813e+00
7.925e-01,1.734e+00
7.975e-01,1.651e+00
8.025e-01,1.565e+00
8.075e-01,1.476e+00
8.125e-01,1.385e+00
8.175e-01,1.293e+00
8.225e-01,1.201e+00
8.275e-01,1.108e+00
8.325e-01,1.016e+00
8.375e-01,9.254e-01
8.425e-01,8.368e-01
8.475e-01,7.509e-01
8.525e-01,6.683e-01
8.575e-01,5.895e-01
8.625e-01,5.152e-01
8.675e-01,4.457e-01
8.725e-01,3.814e-01
8.775e-01,3.225e-01
8.825e-01,2.693e-01
8.875e-01,2.218e-01
8.925e-01,1.799e-01
8.975e-01,1.435e-01
9.025e-01,1.124e-01
9.075e-01,8.630e-02
9.125e-01,6.480e-02
9.175e-01,4.745e-02
9.225e-01,3.379e-02
9.275e-01,2.332e-02
9.325e-01,1.551e-02
9.375e-01,9.902e-03
9.425e-01,6.021e-03
9.475e-01,3.457e-03
9.525e-01,1.853e-03
9.575e-01,9.135e-04
9.625e-01,4.056e-04
9.675e-01,1.574e-04
9.725e-01,5.108e-05
9.775e-01,1.289e-05
9.825e-01,2.232e-06
9.875e-01,2.052e-07
9.925e-01,5.183e-09
9.975e-01,1.706e-12
