transmittance,probability_density
2.500e-03,1.273e-05
7.500e-03,4.172e-04
1.250e-02,1.896e-03
1.750e-02,4.808e-03
2.250e-02,9.200e-03
2.750e-02,1.494e-02
3.250e-02,2.180e-02
3.750e-02,2.955e-02
4.250e-02,3.794e-02
4.750e-02,4.673e-02
5.250e-02,5.570e-02
5.750e-02,6.464e-02
6.250e-02,7.337e-02
6.750e-02,8.174e-02
7.250e-02,8.964e-02
7.750e-02,9.701e-02
8.250e-02,1.038e-01
8.750e-02,1.101e-01
9.250e-02,1.160e-01
9.750e-02,1.214e-01
1.025e-01,1.264e-01
1.075e-01,1.312e-01
1.125e-01,1.357e-01
1.175e-01,1.401e-01
1.225e-01,1.445e-01
1.275e-01,1.488e-01
1.325e-01,1.531e-01
1.375e-01,1.575e-01
1.425e-01,1.619e-01
1.475e-01,1.665e-01
1.525e-01,1.713e-01
1.575e-01,1.762e-01
1.625e-01,1.813e-01
1.675e-01,1.866e-01
1.725e-01,1.921e-01
1.775e-01,1.978e-01
1.825e-01,2.037e-01
1.875e-01,2.097e-01
1.925e-01,2.158e-01
1.975e-01,2.221e-01
2.025e-01,2.284e-01
2.075e-01,2.347e-01
2.125e-01,2.411e-01
2.175e-01,2.475e-01
2.225e-01,2.538e-01
2.275e-01,2.601e-01
2.325e-01,2.663e-01
2.375e-01,2.726e-01
2.425e-01,2.788e-01
2.475e-01,2.850e-01
2.525e-01,2.914e-01
2.575e-01,2.979e-01
2.625e-01,3.047e-01
2.675e-01,3.119e-01
2.725e-01,3.195e-01
2.775e-01,3.277e-01
2.825e-01,3.365e-01
2.875e-01,3.460e-01
2.925e-01,3.563e-01
2.975e-01,3.673e-01
3.025e-01,3.790e-01
3.075e-01,3.913e-01
3.125e-01,4.041e-01
3.175e-01,4.172e-01
3.225e-01,4.305e-01
3.275e-01,4.436e-01
3.325e-01,4.565e-01
3.375e-01,4.689e-01
3.425e-01,4.807e-01
3.475e-01,4.915e-01
3.525e-01,5.015e-01
3.575e-01,5.104e-01
3.625e-01,5.183e-01
3.675e-01,5.252e-01
3.725e-01,5.313e-01
3.775e-01,5.367e-01
3.825e-01,5.416e-01
3.875e-01,5.462e-01
3.925e-01,5.508e-01
3.975e-01,5.556e-01
4.025e-01,5.609e-01
4.075e-01,5.670e-01
4.125e-01,5.739e-01
4.175e-01,5.820e-01
4.225e-01,5.913e-01
4.275e-01,6.020e-01
4.325e-01,6.140e-01
4.375e-01,6.275e-01
4.425e-01,6.423e-01
4.475e-01,6.585e-01
4.525e-01,6.760e-01
4.575e-01,6.946e-01
4.625e-01,7.143e-01
4.675e-01,7.350e-01
4.725e-01,7.565e-01
4.775e-01,7.787e-01
4.825e-01,8.015e-01
4.875e-01,8.248e-01
4.925e-01,8.486e-01
4.975e-01,8.727e-01
5.025e-01,8.972e-01
5.075e-01,9.219e-01
5.125e-01,9.468e-01
5.175e-01,9.720e-01
5.225e-01,9.973e-01
5.275e-01,1.023e+00
5.325e-01,1.049e+00
5.375e-01,1.075e+00
5.425e-01,1.101e+00
5.475e-01,1.127e+00
5.525e-01,1.154e+00
5.575e-01,1.181e+00
5.625e-01,1.208e+00
5.675e-01,1.235e+00
5.725e-01,1.263e+00
5.775e-01,1.291e+00
5.825e-01,1.320e+00
5.875e-01,1.349e+00
5.925e-01,1.378e+00
5.975e-01,1.408e+00
6.025e-01,1.438e+00
6.075e-01,1.470e+00
6.125e-01,1.501e+00
6.175e-01,1.534e+00
6.225e-01,1.567e+00
6.275e-01,1.601e+00
6.325e-01,1.636e+00
6.375e-01,1.673e+00
6.425e-01,1.710e+00
6.475e-01,1.749e+00
6.525e-01,1.789e+00
6.575e-01,1.830e+00
6.625e-01,1.874e+00
6.675e-01,1.918e+00
6.725e-01,1.965e+00
6.775e-01,2.013e+00
6.825e-01,2.063e+00
6.875e-01,2.115e+00
6.925e-01,2.169e+00
6.975e-01,2.225e+00
7.025e-01,2.283e+00
7.075e-01,2.342e+00
7.125e-01,2.403e+00
7.175e-01,2.466e+00
7.225e-01,2.530e+00
7.275e-01,2.595e+00
7.325e-01,2.660e+00
7.375e-01,2.726e+00
7.425e-01,2.791e+00
7.475e-01,2.855e+00
7.525e-01,2.919e+00
7.575e-01,2.979e+00
7.625e-01,3.037e+00
7.675e-01,3.091e+00
7.725e-01,3.141e+00
7.775e-01,3.184e+00
7.825e-01,3.221e+00
7.875e-01,3.249e+00
7.925e-01,3.269e+00
7.975e-01,3.278e+00
8.025e-01,3.276e+00
8.075e-01,3.262e+00
8.125e-01,3.234e+00
8.175e-01,3.192e+00
8.225e-01,3.135e+00
8.275e-01,3.063e+00
8.325e-01,2.976e+00
8.375e-01,2.873e+00
8.425e-01,2.755e+00
8.475e-01,2.622e+00
8.525e-01,2.477e+00
8.575e-01,2.320e+00
8.625e-01,2.152e+00
8.675e-01,1.977e+00
8.725e-01,1.797e+00
8.775e-01,1.613e+00
8.825e-01,1.430e+00
8.875e-01,1.250e+00
8.925e-01,1.076e+00
8.975e-01,9.108e-01
9.025e-01,7.566e-01
9.075e-01,6.156e-01
9.125e-01,4.894e-01
9.175e-01,3.792e-01
9.225e-01,2.854e-01
9.275e-01,2.079e-01
9.325e-01,1.458e-01
9.375e-01,9.791e-02
9.425e-01,6.251e-02
9.475e-01,3.759e-02
9.525e-01,2.103e-02
9.575e-01,1.078e-02
9.625e-01,4.953e-03
9.675e-01,1.976e-03
9.725e-01,6.533e-04
9.775e-01,1.659e-04
9.825e-01,2.832e-05
9.875e-01,2.483e-06
9.925e-01,5.571e-08
9.975e-01,1.275e-11
