transmittance,probability_density
2.500e-03,2.311e-04
7.500e-03,3.244e-03
1.250e-02,1.020e-02
1.750e-02,2.056e-02
2.250e-02,3.341e-02
2.750e-02,4.778e-02
3.250e-02,6.277e-02
3.750e-02,7.767e-02
4.250e-02,9.197e-02
4.750e-02,1.053e-01
5.250e-02,1.176e-01
5.750e-02,1.287e-01
6.250e-02,1.387e-01
6.750e-02,1.477e-01
7.250e-02,1.559e-01
7.750e-02,1.634e-01
8.250e-02,1.703e-01
8.750e-02,1.769e-01
9.250e-02,1.833e-01
9.750e-02,1.895e-01
1.025e-01,1.957e-01
1.075e-01,2.018e-01
1.125e-01,2.081e-01
1.175e-01,2.145e-01
1.225e-01,2.210e-01
1.275e-01,2.277e-01
1.325e-01,2.345e-01
1.375e-01,2.414e-01
1.425e-01,2.484e-01
1.475e-01,2.555e-01
1.525e-01,2.626e-01
1.575e-01,2.697e-01
1.625e-01,2.767e-01
1.675e-01,2.838e-01
1.725e-01,2.908e-01
1.775e-01,2.977e-01
1.825e-01,3.047e-01
1.875e-01,3.117e-01
1.925e-01,3.188e-01
1.975e-01,3.261e-01
2.025e-01,3.336e-01
2.075e-01,3.416e-01
2.125e-01,3.501e-01
2.175e-01,3.592e-01
2.225e-01,3.689e-01
2.275e-01,3.794e-01
2.325e-01,3.905e-01
2.375e-01,4.023e-01
2.425e-01,4.147e-01
2.475e-01,4.276e-01
2.525e-01,4.407e-01
2.575e-01,4.540e-01
2.625e-01,4.671e-01
2.675e-01,4.799e-01
2.725e-01,4.922e-01
2.775e-01,5.038e-01
2.825e-01,5.144e-01
2.875e-01,5.241e-01
2.925e-01,5.327e-01
2.975e-01,5.402e-01
3.025e-01,5.468e-01
3.075e-01,5.524e-01
3.125e-01,5.573e-01
3.175e-01,5.617e-01
3.225e-01,5.659e-01
3.275e-01,5.700e-01
3.325e-01,5.743e-01
3.375e-01,5.791e-01
3.425e-01,5.847e-01
3.475e-01,5.911e-01
3.525e-01,5.987e-01
3.575e-01,6.075e-01
3.625e-01,6.176e-01
3.675e-01,6.290e-01
3.725e-01,6.418e-01
3.775e-01,6.558e-01
3.825e-01,6.712e-01
3.875e-01,6.877e-01
3.925e-01,7.052e-01
3.975e-01,7.237e-01
4.025e-01,7.431e-01
4.075e-01,7.631e-01
4.125e-01,7.837e-01
4.175e-01,8.048e-01
4.225e-01,8.263e-01
4.275e-01,8.481e-01
4.325e-01,8.701e-01
4.375e-01,8.923e-01
4.425e-01,9.146e-01
4.475e-01,9.370e-01
4.525e-01,9.594e-01
4.575e-01,9.819e-01
4.625e-01,1.004e+00
4.675e-01,1.027e+00
4.725e-01,1.050e+00
4.775e-01,1.072e+00
4.825e-01,1.095e+00
4.875e-01,1.118e+00
4.925e-01,1.140e+00
4.975e-01,1.163e+00
5.025e-01,1.186e+00
5.075e-01,1.208e+00
5.125e-01,1.231e+00
5.175e-01,1.254e+00
5.225e-01,1.277e+00
5.275e-01,1.300e+00
5.325e-01,1.323e+00
5.375e-01,1.346e+00
5.425e-01,1.370e+00
5.475e-01,1.393e+00
5.525e-01,1.417e+00
5.575e-01,1.441e+00
5.625e-01,1.466e+00
5.675e-01,1.491e+00
5.725e-01,1.516e+00
5.775e-01,1.542e+00
5.825e-01,1.569e+00
5.875e-01,1.596e+00
5.925e-01,1.624e+00
5.975e-01,1.653e+00
6.025e-01,1.683e+00
6.075e-01,1.714e+00
6.125e-01,1.745e+00
6.175e-01,1.778e+00
6.225e-01,1.811e+00
6.275e-01,1.846e+00
6.325e-01,1.882e+00
6.375e-01,1.919e+00
6.425e-01,1.957e+00
6.475e-01,1.997e+00
6.525e-01,2.037e+00
6.575e-01,2.079e+00
6.625e-01,2.121e+00
6.675e-01,2.164e+00
6.725e-01,2.208e+00
6.775e-01,2.252e+00
6.825e-01,2.297e+00
6.875e-01,2.342e+00
6.925e-01,2.386e+00
6.975e-01,2.431e+00
7.025e-01,2.474e+00
7.075e-01,2.517e+00
7.125e-01,2.558e+00
7.175e-01,2.597e+00
7.225e-01,2.634e+00
7.275e-01,2.668e+00
7.325e-01,2.698e+00
7.375e-01,2.725e+00
7.425e-01,2.748e+00
7.475e-01,2.765e+00
7.525e-01,2.777e+00
7.575e-01,2.783e+00
7.625e-01,2.782e+00
7.675e-01,2.775e+00
7.725e-01,2.759e+00
7.775e-01,2.736e+00
7.825e-01,2.704e+00
7.875e-01,2.664e+00
7.925e-01,2.615e+00
7.975e-01,2.556e+00
8.025e-01,2.489e+00
8.075e-01,2.413e+00
8.125e-01,2.328e+00
8.175e-01,2.235e+00
8.225e-01,2.133e+00
8.275e-01,2.025e+00
8.325e-01,1.911e+00
8.375e-01,1.791e+00
8.425e-01,1.667e+00
8.475e-01,1.540e+00
8.525e-01,1.411e+00
8.575e-01,1.282e+00
8.625e-01,1.154e+00
8.675e-01,1.028e+00
8.725e-01,9.060e-01
8.775e-01,7.893e-01
8.825e-01,6.788e-01
8.875e-01,5.758e-01
8.925e-01,4.811e-01
8.975e-01,3.953e-01
9.025e-01,3.190e-01
9.075e-01,2.522e-01
9.125e-01,1.950e-01
9.175e-01,1.470e-01
9.225e-01,1.078e-01
9.275e-01,7.650e-02
9.325e-01,5.236e-02
9.375e-01,3.436e-02
9.425e-01,2.147e-02
9.475e-01,1.266e-02
9.525e-01,6.964e-03
9.575e-01,3.519e-03
9.625e-01,1.599e-03
9.675e-01,6.343e-04
9.725e-01,2.098e-04
9.775e-01,5.378e-05
9.825e-01,9.401e-06
9.875e-01,8.642e-07
9.925e-01,2.137e-08
9.975e-01,6.408e-12
