transmittance,probability_density
2.500e-03,3.801e-02
7.500e-03,1.431e-01
1.250e-02,2.363e-01
1.750e-02,3.087e-01
2.250e-02,3.632e-01
2.750e-02,4.046e-01
3.250e-02,4.369e-01
3.750e-02,4.630e-01
4.250e-02,4.851e-01
4.750e-02,5.044e-01
5.250e-02,5.219e-01
5.750e-02,5.383e-01
6.250e-02,5.541e-01
6.750e-02,5.698e-01
7.250e-02,5.856e-01
7.750e-02,6.017e-01
8.250e-02,6.182e-01
8.750e-02,6.351e-01
9.250e-02,6.522e-01
9.750e-02,6.693e-01
1.025e-01,6.861e-01
1.075e-01,7.022e-01
1.125e-01,7.174e-01
1.175e-01,7.314e-01
1.225e-01,7.441e-01
1.275e-01,7.554e-01
1.325e-01,7.654e-01
1.375e-01,7.742e-01
1.425e-01,7.819e-01
1.475e-01,7.888e-01
1.525e-01,7.953e-01
1.575e-01,8.017e-01
1.625e-01,8.082e-01
1.675e-01,8.153e-01
1.725e-01,8.230e-01
1.775e-01,8.317e-01
1.825e-01,8.415e-01
1.875e-01,8.526e-01
1.925e-01,8.648e-01
1.975e-01,8.783e-01
2.025e-01,8.931e-01
2.075e-01,9.089e-01
2.125e-01,9.258e-01
2.175e-01,9.436e-01
2.225e-01,9.622e-01
2.275e-01,9.815e-01
2.325e-01,1.001e+00
2.375e-01,1.021e+00
2.425e-01,1.042e+00
2.475e-01,1.063e+00
2.525e-01,1.083e+00
2.575e-01,1.104e+00
2.625e-01,1.125e+00
2.675e-01,1.145e+00
2.725e-01,1.165e+00
2.775e-01,1.185e+00
2.825e-01,1.205e+00
2.875e-01,1.224e+00
2.925e-01,1.243e+00
2.975e-01,1.261e+00
3.025e-01,1.279e+00
3.075e-01,1.296e+00
3.125e-01,1.313e+00
3.175e-01,1.330e+00
3.225e-01,1.345e+00
3.275e-01,1.361e+00
3.325e-01,1.376e+00
3.375e-01,1.391e+00
3.425e-01,1.405e+00
3.475e-01,1.419e+00
3.525e-01,1.432e+00
3.575e-01,1.446e+00
3.625e-01,1.459e+00
3.675e-01,1.471e+00
3.725e-01,1.484e+00
3.775e-01,1.496e+00
3.825e-01,1.509e+00
3.875e-01,1.521e+00
3.925e-01,1.533e+00
3.975e-01,1.545e+00
4.025e-01,1.558e+00
4.075e-01,1.570e+00
4.125e-01,1.583e+00
4.175e-01,1.597e+00
4.225e-01,1.610e+00
4.275e-01,1.624e+00
4.325e-01,1.638e+00
4.375e-01,1.653e+00
4.425e-01,1.668e+00
4.475e-01,1.683e+00
4.525e-01,1.698e+00
4.575e-01,1.714e+00
4.625e-01,1.730e+00
4.675e-01,1.747e+00
4.725e-01,1.763e+00
4.775e-01,1.780e+00
4.825e-01,1.797e+00
4.875e-01,1.813e+00
4.925e-01,1.830e+00
4.975e-01,1.846e+00
5.025e-01,1.862e+00
5.075e-01,1.877e+00
5.125e-01,1.892e+00
5.175e-01,1.907e+00
5.225e-01,1.920e+00
5.275e-01,1.933e+00
5.325e-01,1.946e+00
5.375e-01,1.957e+00
5.425e-01,1.967e+00
5.475e-01,1.976e+00
5.525e-01,1.983e+00
5.575e-01,1.989e+00
5.625e-01,1.994e+00
5.675e-01,1.997e+00
5.725e-01,1.998e+00
5.775e-01,1.997e+00
5.825e-01,1.994e+00
5.875e-01,1.990e+00
5.925e-01,1.983e+00
5.975e-01,1.974e+00
6.025e-01,1.963e+00
6.075e-01,1.949e+00
6.125e-01,1.934e+00
6.175e-01,1.916e+00
6.225e-01,1.895e+00
6.275e-01,1.872e+00
6.325e-01,1.847e+00
6.375e-01,1.819e+00
6.425e-01,1.790e+00
6.475e-01,1.757e+00
6.525e-01,1.723e+00
6.575e-01,1.686e+00
6.625e-01,1.648e+00
6.675e-01,1.607e+00
6.725e-01,1.565e+00
6.775e-01,1.520e+00
6.825e-01,1.474e+00
6.875e-01,1.427e+00
6.925e-01,1.378e+00
6.975e-01,1.328e+00
7.025e-01,1.277e+00
7.075e-01,1.225e+00
7.125e-01,1.172e+00
7.175e-01,1.118e+00
7.225e-01,1.065e+00
7.275e-01,1.011e+00
7.325e-01,9.568e-01
7.375e-01,9.031e-01
7.425e-01,8.499e-01
7.475e-01,7.972e-01
7.525e-01,7.453e-01
7.575e-01,6.944e-01
7.625e-01,6.447e-01
7.675e-01,5.963e-01
7.725e-01,5.493e-01
7.775e-01,5.040e-01
7.825e-01,4.604e-01
7.875e-01,4.188e-01
7.925e-01,3.791e-01
7.975e-01,3.415e-01
8.025e-01,3.060e-01
8.075e-01,2.727e-01
8.125e-01,2.417e-01
8.175e-01,2.129e-01
8.225e-01,1.864e-01
8.275e-01,1.620e-01
8.325e-01,1.399e-01
8.375e-01,1.199e-01
8.425e-01,1.019e-01
8.475e-01,8.592e-02
8.525e-01,7.179e-02
8.575e-01,5.940e-02
8.625e-01,4.866e-02
8.675e-01,3.942e-02
8.725e-01,3.156e-02
8.775e-01,2.495e-02
8.825e-01,1.946e-02
8.875e-01,1.495e-02
8.925e-01,1.130e-02
8.975e-01,8.393e-03
9.025e-01,6.113e-03
9.075e-01,4.359e-03
9.125e-01,3.035e-03
9.175e-01,2.058e-03
9.225e-01,1.355e-03
9.275e-01,8.622e-04
9.325e-01,5.281e-04
9.375e-01,3.095e-04
9.425e-01,1.723e-04
9.475e-01,9.030e-05
9.525e-01,4.400e-05
9.575e-01,1.962e-05
9.625e-01,7.831e-06
9.675e-01,2.711e-06
9.725e-01,7.764e-07
9.775e-01,1.705e-07
9.825e-01,2.510e-08
9.875e-01,1.890e-09
9.925e-01,3.616e-11
9.975e-01,6.952e-15
