transmittance,probability_density
2.500e-03,9.681e-03
7.500e-03,5.239e-02
1.250e-02,1.038e-01
1.750e-02,1.525e-01
2.250e-02,1.945e-01
2.750e-02,2.292e-01
3.250e-02,2.577e-01
3.750e-02,2.812e-01
4.250e-02,3.011e-01
4.750e-02,3.183e-01
5.250e-02,3.337e-01
5.750e-02,3.477e-01
6.250e-02,3.608e-01
6.750e-02,3.733e-01
7.250e-02,3.852e-01
7.750e-02,3.967e-01
8.250e-02,4.078e-01
8.750e-02,4.188e-01
9.250e-02,4.298e-01
9.750e-02,4.408e-01
1.025e-01,4.521e-01
1.075e-01,4.637e-01
1.125e-01,4.759e-01
1.175e-01,4.886e-01
1.225e-01,5.020e-01
1.275e-01,5.159e-01
1.325e-01,5.303e-01
1.375e-01,5.450e-01
1.425e-01,5.598e-01
1.475e-01,5.744e-01
1.525e-01,5.886e-01
1.575e-01,6.022e-01
1.625e-01,6.149e-01
1.675e-01,6.266e-01
1.725e-01,6.372e-01
1.775e-01,6.466e-01
1.825e-01,6.549e-01
1.875e-01,6.621e-01
1.925e-01,6.686e-01
1.975e-01,6.744e-01
2.025e-01,6.798e-01
2.075e-01,6.851e-01
2.125e-01,6.906e-01
2.175e-01,6.965e-01
2.225e-01,7.031e-01
2.275e-01,7.105e-01
2.325e-01,7.190e-01
2.375e-01,7.286e-01
2.425e-01,7.394e-01
2.475e-01,7.515e-01
2.525e-01,7.647e-01
2.575e-01,7.792e-01
2.625e-01,7.947e-01
2.675e-01,8.112e-01
2.725e-01,8.285e-01
2.775e-01,8.467e-01
2.825e-01,8.654e-01
2.875e-01,8.847e-01
2.925e-01,9.045e-01
2.975e-01,9.245e-01
3.025e-01,9.448e-01
3.075e-01,9.652e-01
3.125e-01,9.858e-01
3.175e-01,1.006e+00
3.225e-01,1.027e+00
3.275e-01,1.047e+00
3.325e-01,1.068e+00
3.375e-01,1.088e+00
3.425e-01,1.108e+00
3.475e-01,1.127e+00
3.525e-01,1.147e+00
3.575e-01,1.166e+00
3.625e-01,1.185e+00
3.675e-01,1.203e+00
3.725e-01,1.221e+00
3.775e-01,1.239e+00
3.825e-01,1.257e+00
3.875e-01,1.274e+00
3.925e-01,1.291e+00
3.975e-01,1.307e+00
4.025e-01,1.324e+00
4.075e-01,1.340e+00
4.125e-01,1.356e+00
4.175e-01,1.371e+00
4.225e-01,1.387e+00
4.275e-01,1.402e+00
4.325e-01,1.418e+00
4.375e-01,1.433e+00
4.425e-01,1.449e+00
4.475e-01,1.464e+00
4.525e-01,1.479e+00
4.575e-01,1.495e+00
4.625e-01,1.511e+00
4.675e-01,1.527e+00
4.725e-01,1.543e+00
4.775e-01,1.559e+00
4.825e-01,1.576e+00
4.875e-01,1.593e+00
4.925e-01,1.611e+00
4.975e-01,1.629e+00
5.025e-01,1.648e+00
5.075e-01,1.667e+00
5.125e-01,1.687e+00
5.175e-01,1.707e+00
5.225e-01,1.727e+00
5.275e-01,1.748e+00
5.325e-01,1.769e+00
5.375e-01,1.791e+00
5.425e-01,1.813e+00
5.475e-01,1.835e+00
5.525e-01,1.858e+00
5.575e-01,1.880e+00
5.625e-01,1.902e+00
5.675e-01,1.925e+00
5.725e-01,1.946e+00
5.775e-01,1.968e+00
5.825e-01,1.989e+00
5.875e-01,2.010e+00
5.925e-01,2.030e+00
5.975e-01,2.048e+00
6.025e-01,2.066e+00
6.075e-01,2.083e+00
6.125e-01,2.098e+00
6.175e-01,2.112e+00
6.225e-01,2.124e+00
6.275e-01,2.135e+00
6.325e-01,2.143e+00
6.375e-01,2.149e+00
6.425e-01,2.153e+00
6.475e-01,2.154e+00
6.525e-01,2.153e+00
6.575e-01,2.149e+00
6.625e-01,2.142e+00
6.675e-01,2.132e+00
6.725e-01,2.119e+00
6.775e-01,2.102e+00
6.825e-01,2.083e+00
6.875e-01,2.060e+00
6.925e-01,2.033e+00
6.975e-01,2.003e+00
7.025e-01,1.970e+00
7.075e-01,1.933e+00
7.125e-01,1.893e+00
7.175e-01,1.850e+00
7.225e-01,1.803e+00
7.275e-01,1.753e+00
7.325e-01,1.701e+00
7.375e-01,1.645e+00
7.425e-01,1.587e+00
7.475e-01,1.527e+00
7.525e-01,1.465e+00
7.575e-01,1.400e+00
7.625e-01,1.335e+00
7.675e-01,1.267e+00
7.725e-01,1.199e+00
7.775e-01,1.131e+00
7.825e-01,1.062e+00
7.875e-01,9.931e-01
7.925e-01,9.248e-01
7.975e-01,8.572e-01
8.025e-01,7.908e-01
8.075e-01,7.258e-01
8.125e-01,6.627e-01
8.175e-01,6.016e-01
8.225e-01,5.430e-01
8.275e-01,4.870e-01
8.325e-01,4.339e-01
8.375e-01,3.838e-01
8.425e-01,3.370e-01
8.475e-01,2.936e-01
8.525e-01,2.536e-01
8.575e-01,2.171e-01
8.625e-01,1.840e-01
8.675e-01,1.544e-01
8.725e-01,1.280e-01
8.775e-01,1.049e-01
8.825e-01,8.489e-02
8.875e-01,6.770e-02
8.925e-01,5.316e-02
8.975e-01,4.105e-02
9.025e-01,3.111e-02
9.075e-01,2.310e-02
9.125e-01,1.677e-02
9.175e-01,1.187e-02
9.225e-01,8.162e-03
9.275e-01,5.437e-03
9.325e-01,3.491e-03
9.375e-01,2.149e-03
9.425e-01,1.259e-03
9.475e-01,6.961e-04
9.525e-01,3.590e-04
9.575e-01,1.701e-04
9.625e-01,7.247e-05
9.675e-01,2.695e-05
9.725e-01,8.362e-06
9.775e-01,2.012e-06
9.825e-01,3.305e-07
9.875e-01,2.861e-08
9.925e-01,6.694e-10
9.975e-01,1.937e-13
