transmittance,probability_density
2.500e-03,3.081e-10
7.500e-03,2.416e-07
1.250e-02,4.637e-06
1.750e-02,2.967e-05
2.250e-02,1.112e-04
2.750e-02,3.031e-04
3.250e-02,6.696e-04
3.750e-02,1.273e-03
4.250e-02,2.166e-03
4.750e-02,3.381e-03
5.250e-02,4.929e-03
5.750e-02,6.802e-03
6.250e-02,8.975e-03
6.750e-02,1.141e-02
7.250e-02,1.408e-02
7.750e-02,1.695e-02
8.250e-02,1.999e-02
8.750e-02,2.319e-02
9.250e-02,2.653e-02
9.750e-02,3.003e-02
1.025e-01,3.369e-02
1.075e-01,3.749e-02
1.125e-01,4.144e-02
1.175e-01,4.552e-02
1.225e-01,4.970e-02
1.275e-01,5.393e-02
1.325e-01,5.816e-02
1.375e-01,6.233e-02
1.425e-01,6.638e-02
1.475e-01,7.026e-02
1.525e-01,7.392e-02
1.575e-01,7.733e-02
1.625e-01,8.047e-02
1.675e-01,8.336e-02
1.725e-01,8.601e-02
1.775e-01,8.847e-02
1.825e-01,9.079e-02
1.875e-01,9.302e-02
1.925e-01,9.523e-02
1.975e-01,9.747e-02
2.025e-01,9.977e-02
2.075e-01,1.022e-01
2.125e-01,1.047e-01
2.175e-01,1.074e-01
2.225e-01,1.101e-01
2.275e-01,1.130e-01
2.325e-01,1.160e-01
2.375e-01,1.191e-01
2.425e-01,1.223e-01
2.475e-01,1.256e-01
2.525e-01,1.290e-01
2.575e-01,1.325e-01
2.625e-01,1.361e-01
2.675e-01,1.400e-01
2.725e-01,1.440e-01
2.775e-01,1.482e-01
2.825e-01,1.527e-01
2.875e-01,1.574e-01
2.925e-01,1.624e-01
2.975e-01,1.676e-01
3.025e-01,1.729e-01
3.075e-01,1.785e-01
3.125e-01,1.841e-01
3.175e-01,1.899e-01
3.225e-01,1.957e-01
3.275e-01,2.016e-01
3.325e-01,2.075e-01
3.375e-01,2.134e-01
3.425e-01,2.194e-01
3.475e-01,2.253e-01
3.525e-01,2.312e-01
3.575e-01,2.372e-01
3.625e-01,2.432e-01
3.675e-01,2.493e-01
3.725e-01,2.554e-01
3.775e-01,2.617e-01
3.825e-01,2.682e-01
3.875e-01,2.749e-01
3.925e-01,2.818e-01
3.975e-01,2.892e-01
4.025e-01,2.969e-01
4.075e-01,3.051e-01
4.125e-01,3.139e-01
4.175e-01,3.232e-01
4.225e-01,3.332e-01
4.275e-01,3.439e-01
4.325e-01,3.552e-01
4.375e-01,3.671e-01
4.425e-01,3.796e-01
4.475e-01,3.926e-01
4.525e-01,4.059e-01
4.575e-01,4.195e-01
4.625e-01,4.331e-01
4.675e-01,4.466e-01
4.725e-01,4.599e-01
4.775e-01,4.729e-01
4.825e-01,4.853e-01
4.875e-01,4.973e-01
4.925e-01,5.086e-01
4.975e-01,5.193e-01
5.025e-01,5.295e-01
5.075e-01,5.392e-01
5.125e-01,5.486e-01
5.175e-01,5.577e-01
5.225e-01,5.669e-01
5.275e-01,5.762e-01
5.325e-01,5.860e-01
5.375e-01,5.963e-01
5.425e-01,6.075e-01
5.475e-01,6.197e-01
5.525e-01,6.331e-01
5.575e-01,6.478e-01
5.625e-01,6.639e-01
5.675e-01,6.816e-01
5.725e-01,7.009e-01
5.775e-01,7.217e-01
5.825e-01,7.442e-01
5.875e-01,7.683e-01
5.925e-01,7.939e-01
5.975e-01,8.210e-01
6.025e-01,8.495e-01
6.075e-01,8.793e-01
6.125e-01,9.105e-01
6.175e-01,9.429e-01
6.225e-01,9.765e-01
6.275e-01,1.011e+00
6.325e-01,1.047e+00
6.375e-01,1.084e+00
6.425e-01,1.122e+00
6.475e-01,1.161e+00
6.525e-01,1.201e+00
6.575e-01,1.242e+00
6.625e-01,1.285e+00
6.675e-01,1.329e+00
6.725e-01,1.374e+00
6.775e-01,1.420e+00
6.825e-01,1.469e+00
6.875e-01,1.518e+00
6.925e-01,1.570e+00
6.975e-01,1.624e+00
7.025e-01,1.679e+00
7.075e-01,1.737e+00
7.125e-01,1.798e+00
7.175e-01,1.861e+00
7.225e-01,1.928e+00
7.275e-01,1.997e+00
7.325e-01,2.070e+00
7.375e-01,2.147e+00
7.425e-01,2.229e+00
7.475e-01,2.314e+00
7.525e-01,2.405e+00
7.575e-01,2.501e+00
7.625e-01,2.602e+00
7.675e-01,2.708e+00
7.725e-01,2.821e+00
7.775e-01,2.939e+00
7.825e-01,3.063e+00
7.875e-01,3.192e+00
7.925e-01,3.327e+00
7.975e-01,3.466e+00
8.025e-01,3.608e+00
8.075e-01,3.753e+00
8.125e-01,3.898e+00
8.175e-01,4.040e+00
8.225e-01,4.179e+00
8.275e-01,4.310e+00
8.325e-01,4.429e+00
8.375e-01,4.534e+00
8.425e-01,4.619e+00
8.475e-01,4.679e+00
8.525e-01,4.710e+00
8.575e-01,4.708e+00
8.625e-01,4.667e+00
8.675e-01,4.585e+00
8.725e-01,4.458e+00
8.775e-01,4.285e+00
8.825e-01,4.066e+00
8.875e-01,3.804e+00
8.925e-01,3.502e+00
8.975e-01,3.168e+00
9.025e-01,2.809e+00
9.075e-01,2.436e+00
9.125e-01,2.061e+00
9.175e-01,1.695e+00
9.225e-01,1.351e+00
9.275e-01,1.038e+00
9.325e-01,7.650e-01
9.375e-01,5.374e-01
9.425e-01,3.569e-01
9.475e-01,2.218e-01
9.525e-01,1.272e-01
9.575e-01,6.616e-02
9.625e-01,3.045e-02
9.675e-01,1.198e-02
9.725e-01,3.819e-03
9.775e-01,9.072e-04
9.825e-01,1.384e-04
9.875e-01,1.005e-05
9.925e-01,1.595e-07
9.975e-01,1.533e-11
