transmittance,probability_density
2.500e-03,1.865e-06
7.500e-03,1.094e-04
1.250e-02,6.450e-04
1.750e-02,1.926e-03
2.250e-02,4.136e-03
2.750e-02,7.316e-03
3.250e-02,1.141e-02
3.750e-02,1.631e-02
4.250e-02,2.189e-02
4.750e-02,2.802e-02
5.250e-02,3.459e-02
5.750e-02,4.147e-02
6.250e-02,4.853e-02
6.750e-02,5.568e-02
7.250e-02,6.277e-02
7.750e-02,6.971e-02
8.250e-02,7.639e-02
8.750e-02,8.274e-02
9.250e-02,8.871e-02
9.750e-02,9.427e-02
1.025e-01,9.944e-02
1.075e-01,1.042e-01
1.125e-01,1.087e-01
1.175e-01,1.129e-01
1.225e-01,1.169e-01
1.275e-01,1.207e-01
1.325e-01,1.245e-01
1.375e-01,1.282e-01
1.425e-01,1.318e-01
1.475e-01,1.355e-01
1.525e-01,1.393e-01
1.575e-01,1.431e-01
1.625e-01,1.470e-01
1.675e-01,1.510e-01
1.725e-01,1.552e-01
1.775e-01,1.595e-01
1.825e-01,1.640e-01
1.875e-01,1.687e-01
1.925e-01,1.737e-01
1.975e-01,1.788e-01
2.025e-01,1.841e-01
2.075e-01,1.896e-01
2.125e-01,1.953e-01
2.175e-01,2.011e-01
2.225e-01,2.070e-01
2.275e-01,2.131e-01
2.325e-01,2.191e-01
2.375e-01,2.253e-01
2.425e-01,2.314e-01
2.475e-01,2.376e-01
2.525e-01,2.437e-01
2.575e-01,2.498e-01
2.625e-01,2.559e-01
2.675e-01,2.619e-01
2.725e-01,2.680e-01
2.775e-01,2.740e-01
2.825e-01,2.802e-01
2.875e-01,2.865e-01
2.925e-01,2.930e-01
2.975e-01,2.998e-01
3.025e-01,3.070e-01
3.075e-01,3.148e-01
3.125e-01,3.231e-01
3.175e-01,3.321e-01
3.225e-01,3.419e-01
3.275e-01,3.524e-01
3.325e-01,3.636e-01
3.375e-01,3.755e-01
3.425e-01,3.880e-01
3.475e-01,4.010e-01
3.525e-01,4.142e-01
3.575e-01,4.276e-01
3.625e-01,4.408e-01
3.675e-01,4.537e-01
3.725e-01,4.661e-01
3.775e-01,4.778e-01
3.825e-01,4.887e-01
3.875e-01,4.987e-01
3.925e-01,5.077e-01
3.975e-01,5.157e-01
4.025e-01,5.229e-01
4.075e-01,5.293e-01
4.125e-01,5.351e-01
4.175e-01,5.405e-01
4.225e-01,5.457e-01
4.275e-01,5.510e-01
4.325e-01,5.566e-01
4.375e-01,5.628e-01
4.425e-01,5.698e-01
4.475e-01,5.778e-01
4.525e-01,5.870e-01
4.575e-01,5.974e-01
4.625e-01,6.092e-01
4.675e-01,6.224e-01
4.725e-01,6.371e-01
4.775e-01,6.532e-01
4.825e-01,6.706e-01
4.875e-01,6.894e-01
4.925e-01,7.093e-01
4.975e-01,7.304e-01
5.025e-01,7.524e-01
5.075e-01,7.754e-01
5.125e-01,7.991e-01
5.175e-01,8.235e-01
5.225e-01,8.484e-01
5.275e-01,8.739e-01
5.325e-01,8.999e-01
5.375e-01,9.262e-01
5.425e-01,9.530e-01
5.475e-01,9.800e-01
5.525e-01,1.007e+00
5.575e-01,1.035e+00
5.625e-01,1.063e+00
5.675e-01,1.092e+00
5.725e-01,1.120e+00
5.775e-01,1.149e+00
5.825e-01,1.179e+00
5.875e-01,1.209e+00
5.925e-01,1.239e+00
5.975e-01,1.270e+00
6.025e-01,1.301e+00
6.075e-01,1.333e+00
6.125e-01,1.366e+00
6.175e-01,1.399e+00
6.225e-01,1.433e+00
6.275e-01,1.468e+00
6.325e-01,1.503e+00
6.375e-01,1.540e+00
6.425e-01,1.577e+00
6.475e-01,1.616e+00
6.525e-01,1.656e+00
6.575e-01,1.697e+00
6.625e-01,1.740e+00
6.675e-01,1.784e+00
6.725e-01,1.829e+00
6.775e-01,1.877e+00
6.825e-01,1.927e+00
6.875e-01,1.978e+00
6.925e-01,2.032e+00
6.975e-01,2.088e+00
7.025e-01,2.146e+00
7.075e-01,2.207e+00
7.125e-01,2.270e+00
7.175e-01,2.336e+00
7.225e-01,2.404e+00
7.275e-01,2.475e+00
7.325e-01,2.548e+00
7.375e-01,2.623e+00
7.425e-01,2.700e+00
7.475e-01,2.778e+00
7.525e-01,2.857e+00
7.575e-01,2.937e+00
7.625e-01,3.017e+00
7.675e-01,3.095e+00
7.725e-01,3.172e+00
7.775e-01,3.246e+00
7.825e-01,3.316e+00
7.875e-01,3.381e+00
7.925e-01,3.439e+00
7.975e-01,3.490e+00
8.025e-01,3.530e+00
8.075e-01,3.559e+00
8.125e-01,3.576e+00
8.175e-01,3.577e+00
8.225e-01,3.563e+00
8.275e-01,3.532e+00
8.325e-01,3.482e+00
8.375e-01,3.412e+00
8.425e-01,3.322e+00
8.475e-01,3.212e+00
8.525e-01,3.082e+00
8.575e-01,2.932e+00
8.625e-01,2.764e+00
8.675e-01,2.580e+00
8.725e-01,2.383e+00
8.775e-01,2.174e+00
8.825e-01,1.958e+00
8.875e-01,1.739e+00
8.925e-01,1.521e+00
8.975e-01,1.307e+00
9.025e-01,1.102e+00
9.075e-01,9.101e-01
9.125e-01,7.340e-01
9.175e-01,5.767e-01
9.225e-01,4.399e-01
9.275e-01,3.244e-01
9.325e-01,2.303e-01
9.375e-01,1.563e-01
9.425e-01,1.008e-01
9.475e-01,6.110e-02
9.525e-01,3.443e-02
9.575e-01,1.773e-02
9.625e-01,8.162e-03
9.675e-01,3.252e-03
9.725e-01,1.069e-03
9.775e-01,2.682e-04
9.825e-01,4.480e-05
9.875e-01,3.782e-06
9.925e-01,7.897e-08
9.975e-01,1.498e-11
