transmittance,probability_density
2.500e-03,4.024e-12
7.500e-03,1.106e-08
1.250e-02,3.775e-07
1.750e-02,3.512e-06
2.250e-02,1.733e-05
2.750e-02,5.871e-05
3.250e-02,1.549e-04
3.750e-02,3.424e-04
4.250e-02,6.627e-04
4.750e-02,1.157e-03
5.250e-02,1.862e-03
5.750e-02,2.804e-03
6.250e-02,3.994e-03
6.750e-02,5.433e-03
7.250e-02,7.108e-03
7.750e-02,8.997e-03
8.250e-02,1.107e-02
8.750e-02,1.330e-02
9.250e-02,1.567e-02
9.750e-02,1.814e-02
1.025e-01,2.072e-02
1.075e-01,2.340e-02
1.125e-01,2.619e-02
1.175e-01,2.910e-02
1.225e-01,3.215e-02
1.275e-01,3.535e-02
1.325e-01,3.870e-02
1.375e-01,4.220e-02
1.425e-01,4.584e-02
1.475e-01,4.959e-02
1.525e-01,5.340e-02
1.575e-01,5.722e-02
1.625e-01,6.100e-02
1.675e-01,6.466e-02
1.725e-01,6.816e-02
1.775e-01,7.144e-02
1.825e-01,7.447e-02
1.875e-01,7.723e-02
1.925e-01,7.973e-02
1.975e-01,8.198e-02
2.025e-01,8.403e-02
2.075e-01,8.593e-02
2.125e-01,8.774e-02
2.175e-01,8.953e-02
2.225e-01,9.137e-02
2.275e-01,9.329e-02
2.325e-01,9.536e-02
2.375e-01,9.759e-02
2.425e-01,1.000e-01
2.475e-01,1.026e-01
2.525e-01,1.053e-01
2.575e-01,1.082e-01
2.625e-01,1.112e-01
2.675e-01,1.143e-01
2.725e-01,1.175e-01
2.775e-01,1.207e-01
2.825e-01,1.240e-01
2.875e-01,1.275e-01
2.925e-01,1.310e-01
2.975e-01,1.347e-01
3.025e-01,1.385e-01
3.075e-01,1.426e-01
3.125e-01,1.469e-01
3.175e-01,1.515e-01
3.225e-01,1.563e-01
3.275e-01,1.614e-01
3.325e-01,1.666e-01
3.375e-01,1.721e-01
3.425e-01,1.778e-01
3.475e-01,1.836e-01
3.525e-01,1.895e-01
3.575e-01,1.954e-01
3.625e-01,2.014e-01
3.675e-01,2.073e-01
3.725e-01,2.133e-01
3.775e-01,2.193e-01
3.825e-01,2.253e-01
3.875e-01,2.314e-01
3.925e-01,2.375e-01
3.975e-01,2.437e-01
4.025e-01,2.500e-01
4.075e-01,2.564e-01
4.125e-01,2.631e-01
4.175e-01,2.699e-01
4.225e-01,2.771e-01
4.275e-01,2.846e-01
4.325e-01,2.925e-01
4.375e-01,3.008e-01
4.425e-01,3.096e-01
4.475e-01,3.190e-01
4.525e-01,3.289e-01
4.575e-01,3.394e-01
4.625e-01,3.506e-01
4.675e-01,3.623e-01
4.725e-01,3.746e-01
4.775e-01,3.874e-01
4.825e-01,4.007e-01
4.875e-01,4.142e-01
4.925e-01,4.280e-01
4.975e-01,4.419e-01
5.025e-01,4.557e-01
5.075e-01,4.693e-01
5.125e-01,4.827e-01
5.175e-01,4.958e-01
5.225e-01,5.085e-01
5.275e-01,5.207e-01
5.325e-01,5.325e-01
5.375e-01,5.440e-01
5.425e-01,5.552e-01
5.475e-01,5.663e-01
5.525e-01,5.774e-01
5.575e-01,5.887e-01
5.625e-01,6.003e-01
5.675e-01,6.126e-01
5.725e-01,6.256e-01
5.775e-01,6.396e-01
5.825e-01,6.548e-01
5.875e-01,6.713e-01
5.925e-01,6.892e-01
5.975e-01,7.088e-01
6.025e-01,7.300e-01
6.075e-01,7.529e-01
6.125e-01,7.776e-01
6.175e-01,8.041e-01
6.225e-01,8.323e-01
6.275e-01,8.623e-01
6.325e-01,8.940e-01
6.375e-01,9.274e-01
6.425e-01,9.624e-01
6.475e-01,9.990e-01
6.525e-01,1.037e+00
6.575e-01,1.077e+00
6.625e-01,1.118e+00
6.675e-01,1.161e+00
6.725e-01,1.205e+00
6.775e-01,1.251e+00
6.825e-01,1.298e+00
6.875e-01,1.347e+00
6.925e-01,1.398e+00
6.975e-01,1.451e+00
7.025e-01,1.506e+00
7.075e-01,1.563e+00
7.125e-01,1.623e+00
7.175e-01,1.685e+00
7.225e-01,1.750e+00
7.275e-01,1.818e+00
7.325e-01,1.889e+00
7.375e-01,1.964e+00
7.425e-01,2.043e+00
7.475e-01,2.127e+00
7.525e-01,2.215e+00
7.575e-01,2.309e+00
7.625e-01,2.408e+00
7.675e-01,2.514e+00
7.725e-01,2.626e+00
7.775e-01,2.745e+00
7.825e-01,2.871e+00
7.875e-01,3.005e+00
7.925e-01,3.147e+00
7.975e-01,3.296e+00
8.025e-01,3.453e+00
8.075e-01,3.617e+00
8.125e-01,3.786e+00
8.175e-01,3.960e+00
8.225e-01,4.137e+00
8.275e-01,4.313e+00
8.325e-01,4.486e+00
8.375e-01,4.651e+00
8.425e-01,4.804e+00
8.475e-01,4.939e+00
8.525e-01,5.050e+00
8.575e-01,5.130e+00
8.625e-01,5.173e+00
8.675e-01,5.173e+00
8.725e-01,5.121e+00
8.775e-01,5.015e+00
8.825e-01,4.849e+00
8.875e-01,4.623e+00
8.925e-01,4.339e+00
8.975e-01,3.999e+00
9.025e-01,3.614e+00
9.075e-01,3.192e+00
9.125e-01,2.750e+00
9.175e-01,2.301e+00
9.225e-01,1.864e+00
9.275e-01,1.455e+00
9.325e-01,1.088e+00
9.375e-01,7.740e-01
9.425e-01,5.197e-01
9.475e-01,3.258e-01
9.525e-01,1.881e-01
9.575e-01,9.813e-02
9.625e-01,4.513e-02
9.675e-01,1.765e-02
9.725e-01,5.557e-03
9.775e-01,1.292e-03
9.825e-01,1.905e-04
9.875e-01,1.307e-05
9.925e-01,1.882e-07
9.975e-01,1.443e-11
