transmittance,probability_density
2.500e-03,1.735e-14
7.500e-03,2.237e-10
1.250e-02,1.557e-08
1.750e-02,2.305e-07
2.250e-02,1.603e-06
2.750e-02,7.110e-06
3.250e-02,2.342e-05
3.750e-02,6.242e-05
4.250e-02,1.420e-04
4.750e-02,2.856e-04
5.250e-02,5.209e-04
5.750e-02,8.768e-04
6.250e-02,1.381e-03
6.750e-02,2.057e-03
7.250e-02,2.920e-03
7.750e-02,3.979e-03
8.250e-02,5.231e-03
8.750e-02,6.666e-03
9.250e-02,8.267e-03
9.750e-02,1.001e-02
1.025e-01,1.188e-02
1.075e-01,1.384e-02
1.125e-01,1.588e-02
1.175e-01,1.798e-02
1.225e-01,2.015e-02
1.275e-01,2.238e-02
1.325e-01,2.469e-02
1.375e-01,2.709e-02
1.425e-01,2.961e-02
1.475e-01,3.227e-02
1.525e-01,3.509e-02
1.575e-01,3.807e-02
1.625e-01,4.123e-02
1.675e-01,4.454e-02
1.725e-01,4.798e-02
1.775e-01,5.152e-02
1.825e-01,5.509e-02
1.875e-01,5.865e-02
1.925e-01,6.213e-02
1.975e-01,6.545e-02
2.025e-01,6.858e-02
2.075e-01,7.145e-02
2.125e-01,7.404e-02
2.175e-01,7.634e-02
2.225e-01,7.836e-02
2.275e-01,8.014e-02
2.325e-01,8.173e-02
2.375e-01,8.318e-02
2.425e-01,8.458e-02
2.475e-01,8.600e-02
2.525e-01,8.751e-02
2.575e-01,8.918e-02
2.625e-01,9.104e-02
2.675e-01,9.312e-02
2.725e-01,9.545e-02
2.775e-01,9.800e-02
2.825e-01,1.008e-01
2.875e-01,1.037e-01
2.925e-01,1.068e-01
2.975e-01,1.099e-01
3.025e-01,1.132e-01
3.075e-01,1.165e-01
3.125e-01,1.198e-01
3.175e-01,1.232e-01
3.225e-01,1.266e-01
3.275e-01,1.302e-01
3.325e-01,1.339e-01
3.375e-01,1.378e-01
3.425e-01,1.420e-01
3.475e-01,1.463e-01
3.525e-01,1.510e-01
3.575e-01,1.559e-01
3.625e-01,1.611e-01
3.675e-01,1.665e-01
3.725e-01,1.722e-01
3.775e-01,1.780e-01
3.825e-01,1.839e-01
3.875e-01,1.900e-01
3.925e-01,1.961e-01
3.975e-01,2.022e-01
4.025e-01,2.084e-01
4.075e-01,2.146e-01
4.125e-01,2.207e-01
4.175e-01,2.270e-01
4.225e-01,2.332e-01
4.275e-01,2.396e-01
4.325e-01,2.461e-01
4.375e-01,2.528e-01
4.425e-01,2.596e-01
4.475e-01,2.668e-01
4.525e-01,2.742e-01
4.575e-01,2.819e-01
4.625e-01,2.901e-01
4.675e-01,2.987e-01
4.725e-01,3.077e-01
4.775e-01,3.173e-01
4.825e-01,3.274e-01
4.875e-01,3.380e-01
4.925e-01,3.492e-01
4.975e-01,3.610e-01
5.025e-01,3.733e-01
5.075e-01,3.862e-01
5.125e-01,3.995e-01
5.175e-01,4.132e-01
5.225e-01,4.272e-01
5.275e-01,4.414e-01
5.325e-01,4.557e-01
5.375e-01,4.700e-01
5.425e-01,4.843e-01
5.475e-01,4.984e-01
5.525e-01,5.124e-01
5.575e-01,5.261e-01
5.625e-01,5.396e-01
5.675e-01,5.530e-01
5.725e-01,5.662e-01
5.775e-01,5.794e-01
5.825e-01,5.928e-01
5.875e-01,6.064e-01
5.925e-01,6.205e-01
5.975e-01,6.352e-01
6.025e-01,6.508e-01
6.075e-01,6.674e-01
6.125e-01,6.852e-01
6.175e-01,7.045e-01
6.225e-01,7.253e-01
6.275e-01,7.477e-01
6.325e-01,7.720e-01
6.375e-01,7.982e-01
6.425e-01,8.264e-01
6.475e-01,8.566e-01
6.525e-01,8.889e-01
6.575e-01,9.233e-01
6.625e-01,9.597e-01
6.675e-01,9.982e-01
6.725e-01,1.039e+00
6.775e-01,1.081e+00
6.825e-01,1.126e+00
6.875e-01,1.173e+00
6.925e-01,1.222e+00
6.975e-01,1.273e+00
7.025e-01,1.326e+00
7.075e-01,1.382e+00
7.125e-01,1.440e+00
7.175e-01,1.500e+00
7.225e-01,1.564e+00
7.275e-01,1.630e+00
7.325e-01,1.699e+00
7.375e-01,1.772e+00
7.425e-01,1.849e+00
7.475e-01,1.930e+00
7.525e-01,2.016e+00
7.575e-01,2.107e+00
7.625e-01,2.203e+00
7.675e-01,2.306e+00
7.725e-01,2.415e+00
7.775e-01,2.531e+00
7.825e-01,2.656e+00
7.875e-01,2.789e+00
7.925e-01,2.931e+00
7.975e-01,3.083e+00
8.025e-01,3.245e+00
8.075e-01,3.418e+00
8.125e-01,3.600e+00
8.175e-01,3.793e+00
8.225e-01,3.994e+00
8.275e-01,4.203e+00
8.325e-01,4.416e+00
8.375e-01,4.631e+00
8.425e-01,4.844e+00
8.475e-01,5.049e+00
8.525e-01,5.239e+00
8.575e-01,5.407e+00
8.625e-01,5.544e+00
8.675e-01,5.641e+00
8.725e-01,5.689e+00
8.775e-01,5.677e+00
8.825e-01,5.597e+00
8.875e-01,5.443e+00
8.925e-01,5.211e+00
8.975e-01,4.901e+00
9.025e-01,4.518e+00
9.075e-01,4.070e+00
9.125e-01,3.574e+00
9.175e-01,3.047e+00
9.225e-01,2.513e+00
9.275e-01,1.994e+00
9.325e-01,1.514e+00
9.375e-01,1.093e+00
9.425e-01,7.424e-01
9.475e-01,4.700e-01
9.525e-01,2.732e-01
9.575e-01,1.430e-01
9.625e-01,6.574e-02
9.675e-01,2.556e-02
9.725e-01,7.946e-03
9.775e-01,1.808e-03
9.825e-01,2.572e-04
9.875e-01,1.669e-05
9.925e-01,2.188e-07
9.975e-01,1.373e-11
