transmittance,probability_density
2.500e-03,1.300e-32
7.500e-03,1.221e-23
1.250e-02,1.506e-19
1.750e-02,6.612e-17
2.250e-02,5.689e-15
2.750e-02,1.855e-13
3.250e-02,3.176e-12
3.750e-02,3.433e-11
4.250e-02,2.629e-10
4.750e-02,1.539e-09
5.250e-02,7.271e-09
5.750e-02,2.880e-08
6.250e-02,9.849e-08
6.750e-02,2.974e-07
7.250e-02,8.069e-07
7.750e-02,1.995e-06
8.250e-02,4.548e-06
8.750e-02,9.648e-06
9.250e-02,1.920e-05
9.750e-02,3.607e-05
1.025e-01,6.436e-05
1.075e-01,1.096e-04
1.125e-01,1.788e-04
1.175e-01,2.807e-04
1.225e-01,4.252e-04
1.275e-01,6.234e-04
1.325e-01,8.868e-04
1.375e-01,1.227e-03
1.425e-01,1.654e-03
1.475e-01,2.178e-03
1.525e-01,2.804e-03
1.575e-01,3.536e-03
1.625e-01,4.374e-03
1.675e-01,5.314e-03
1.725e-01,6.350e-03
1.775e-01,7.469e-03
1.825e-01,8.659e-03
1.875e-01,9.904e-03
1.925e-01,1.119e-02
1.975e-01,1.249e-02
2.025e-01,1.380e-02
2.075e-01,1.510e-02
2.125e-01,1.639e-02
2.175e-01,1.765e-02
2.225e-01,1.889e-02
2.275e-01,2.011e-02
2.325e-01,2.133e-02
2.375e-01,2.256e-02
2.425e-01,2.383e-02
2.475e-01,2.518e-02
2.525e-01,2.664e-02
2.575e-01,2.823e-02
2.625e-01,3.001e-02
2.675e-01,3.200e-02
2.725e-01,3.422e-02
2.775e-01,3.670e-02
2.825e-01,3.943e-02
2.875e-01,4.241e-02
2.925e-01,4.560e-02
2.975e-01,4.895e-02
3.025e-01,5.241e-02
3.075e-01,5.589e-02
3.125e-01,5.932e-02
3.175e-01,6.260e-02
3.225e-01,6.565e-02
3.275e-01,6.840e-02
3.325e-01,7.077e-02
3.375e-01,7.275e-02
3.425e-01,7.430e-02
3.475e-01,7.545e-02
3.525e-01,7.624e-02
3.575e-01,7.675e-02
3.625e-01,7.707e-02
3.675e-01,7.731e-02
3.725e-01,7.759e-02
3.775e-01,7.803e-02
3.825e-01,7.873e-02
3.875e-01,7.980e-02
3.925e-01,8.129e-02
3.975e-01,8.325e-02
4.025e-01,8.569e-02
4.075e-01,8.859e-02
4.125e-01,9.190e-02
4.175e-01,9.556e-02
4.225e-01,9.948e-02
4.275e-01,1.036e-01
4.325e-01,1.078e-01
4.375e-01,1.121e-01
4.425e-01,1.163e-01
4.475e-01,1.205e-01
4.525e-01,1.247e-01
4.575e-01,1.288e-01
4.625e-01,1.329e-01
4.675e-01,1.371e-01
4.725e-01,1.414e-01
4.775e-01,1.459e-01
4.825e-01,1.507e-01
4.875e-01,1.557e-01
4.925e-01,1.611e-01
4.975e-01,1.668e-01
5.025e-01,1.728e-01
5.075e-01,1.792e-01
5.125e-01,1.859e-01
5.175e-01,1.930e-01
5.225e-01,2.003e-01
5.275e-01,2.078e-01
5.325e-01,2.156e-01
5.375e-01,2.235e-01
5.425e-01,2.317e-01
5.475e-01,2.400e-01
5.525e-01,2.486e-01
5.575e-01,2.574e-01
5.625e-01,2.664e-01
5.675e-01,2.758e-01
5.725e-01,2.856e-01
5.775e-01,2.957e-01
5.825e-01,3.064e-01
5.875e-01,3.175e-01
5.925e-01,3.292e-01
5.975e-01,3.416e-01
6.025e-01,3.545e-01
6.075e-01,3.681e-01
6.125e-01,3.824e-01
6.175e-01,3.973e-01
6.225e-01,4.129e-01
6.275e-01,4.293e-01
6.325e-01,4.463e-01
6.375e-01,4.640e-01
6.425e-01,4.824e-01
6.475e-01,5.015e-01
6.525e-01,5.212e-01
6.575e-01,5.417e-01
6.625e-01,5.628e-01
6.675e-01,5.847e-01
6.725e-01,6.075e-01
6.775e-01,6.311e-01
6.825e-01,6.557e-01
6.875e-01,6.814e-01
6.925e-01,7.083e-01
6.975e-01,7.366e-01
7.025e-01,7.666e-01
7.075e-01,7.984e-01
7.125e-01,8.324e-01
7.175e-01,8.687e-01
7.225e-01,9.077e-01
7.275e-01,9.496e-01
7.325e-01,9.950e-01
7.375e-01,1.044e+00
7.425e-01,1.097e+00
7.475e-01,1.154e+00
7.525e-01,1.216e+00
7.575e-01,1.284e+00
7.625e-01,1.357e+00
7.675e-01,1.436e+00
7.725e-01,1.521e+00
7.775e-01,1.613e+00
7.825e-01,1.714e+00
7.875e-01,1.822e+00
7.925e-01,1.940e+00
7.975e-01,2.068e+00
8.025e-01,2.207e+00
8.075e-01,2.358e+00
8.125e-01,2.524e+00
8.175e-01,2.705e+00
8.225e-01,2.905e+00
8.275e-01,3.125e+00
8.325e-01,3.367e+00
8.375e-01,3.634e+00
8.425e-01,3.929e+00
8.475e-01,4.254e+00
8.525e-01,4.610e+00
8.575e-01,4.997e+00
8.625e-01,5.414e+00
8.675e-01,5.856e+00
8.725e-01,6.315e+00
8.775e-01,6.777e+00
8.825e-01,7.224e+00
8.875e-01,7.630e+00
8.925e-01,7.964e+00
8.975e-01,8.190e+00
9.025e-01,8.271e+00
9.075e-01,8.171e+00
9.125e-01,7.865e+00
9.175e-01,7.340e+00
9.225e-01,6.607e+00
9.275e-01,5.700e+00
9.325e-01,4.680e+00
9.375e-01,3.625e+00
9.425e-01,2.621e+00
9.475e-01,1.746e+00
9.525e-01,1.054e+00
9.575e-01,5.643e-01
9.625e-01,2.601e-01
9.675e-01,9.900e-02
9.725e-01,2.928e-02
9.775e-01,6.108e-03
9.825e-01,7.608e-04
9.875e-01,4.061e-05
9.925e-01,4.008e-07
9.975e-01,1.574e-11
