transmittance,probability_density
2.500e-03,6.705e-41
7.500e-03,8.436e-30
1.250e-02,1.002e-24
1.750e-02,1.941e-21
2.250e-02,5.030e-19
2.750e-02,3.938e-17
3.250e-02,1.392e-15
3.750e-02,2.789e-14
4.250e-02,3.653e-13
4.750e-02,3.437e-12
5.250e-02,2.481e-11
5.750e-02,1.442e-10
6.250e-02,6.988e-10
6.750e-02,2.905e-09
7.250e-02,1.059e-08
7.750e-02,3.440e-08
8.250e-02,1.011e-07
8.750e-02,2.718e-07
9.250e-02,6.752e-07
9.750e-02,1.562e-06
1.025e-01,3.389e-06
1.075e-01,6.939e-06
1.125e-01,1.347e-05
1.175e-01,2.492e-05
1.225e-01,4.408e-05
1.275e-01,7.483e-05
1.325e-01,1.223e-04
1.375e-01,1.930e-04
1.425e-01,2.947e-04
1.475e-01,4.365e-04
1.525e-01,6.285e-04
1.575e-01,8.812e-04
1.625e-01,1.205e-03
1.675e-01,1.610e-03
1.725e-01,2.105e-03
1.775e-01,2.695e-03
1.825e-01,3.386e-03
1.875e-01,4.177e-03
1.925e-01,5.065e-03
1.975e-01,6.046e-03
2.025e-01,7.107e-03
2.075e-01,8.238e-03
2.125e-01,9.424e-03
2.175e-01,1.065e-02
2.225e-01,1.189e-02
2.275e-01,1.314e-02
2.325e-01,1.438e-02
2.375e-01,1.559e-02
2.425e-01,1.678e-02
2.475e-01,1.793e-02
2.525e-01,1.904e-02
2.575e-01,2.013e-02
2.625e-01,2.121e-02
2.675e-01,2.230e-02
2.725e-01,2.342e-02
2.775e-01,2.460e-02
2.825e-01,2.588e-02
2.875e-01,2.731e-02
2.925e-01,2.891e-02
2.975e-01,3.072e-02
3.025e-01,3.277e-02
3.075e-01,3.509e-02
3.125e-01,3.768e-02
3.175e-01,4.053e-02
3.225e-01,4.363e-02
3.275e-01,4.694e-02
3.325e-01,5.039e-02
3.375e-01,5.393e-02
3.425e-01,5.745e-02
3.475e-01,6.087e-02
3.525e-01,6.411e-02
3.575e-01,6.707e-02
3.625e-01,6.968e-02
3.675e-01,7.189e-02
3.725e-01,7.367e-02
3.775e-01,7.501e-02
3.825e-01,7.596e-02
3.875e-01,7.657e-02
3.925e-01,7.691e-02
3.975e-01,7.711e-02
4.025e-01,7.727e-02
4.075e-01,7.752e-02
4.125e-01,7.798e-02
4.175e-01,7.877e-02
4.225e-01,7.996e-02
4.275e-01,8.162e-02
4.325e-01,8.378e-02
4.375e-01,8.645e-02
4.425e-01,8.960e-02
4.475e-01,9.318e-02
4.525e-01,9.712e-02
4.575e-01,1.013e-01
4.625e-01,1.058e-01
4.675e-01,1.103e-01
4.725e-01,1.149e-01
4.775e-01,1.194e-01
4.825e-01,1.240e-01
4.875e-01,1.285e-01
4.925e-01,1.330e-01
4.975e-01,1.376e-01
5.025e-01,1.422e-01
5.075e-01,1.469e-01
5.125e-01,1.518e-01
5.175e-01,1.570e-01
5.225e-01,1.624e-01
5.275e-01,1.682e-01
5.325e-01,1.744e-01
5.375e-01,1.809e-01
5.425e-01,1.878e-01
5.475e-01,1.951e-01
5.525e-01,2.028e-01
5.575e-01,2.107e-01
5.625e-01,2.190e-01
5.675e-01,2.276e-01
5.725e-01,2.364e-01
5.775e-01,2.456e-01
5.825e-01,2.550e-01
5.875e-01,2.648e-01
5.925e-01,2.749e-01
5.975e-01,2.854e-01
6.025e-01,2.964e-01
6.075e-01,3.078e-01
6.125e-01,3.197e-01
6.175e-01,3.323e-01
6.225e-01,3.455e-01
6.275e-01,3.593e-01
6.325e-01,3.739e-01
6.375e-01,3.892e-01
6.425e-01,4.053e-01
6.475e-01,4.222e-01
6.525e-01,4.400e-01
6.575e-01,4.585e-01
6.625e-01,4.780e-01
6.675e-01,4.983e-01
6.725e-01,5.195e-01
6.775e-01,5.416e-01
6.825e-01,5.648e-01
6.875e-01,5.889e-01
6.925e-01,6.142e-01
6.975e-01,6.406e-01
7.025e-01,6.683e-01
7.075e-01,6.974e-01
7.125e-01,7.282e-01
7.175e-01,7.607e-01
7.225e-01,7.953e-01
7.275e-01,8.321e-01
7.325e-01,8.716e-01
7.375e-01,9.139e-01
7.425e-01,9.596e-01
7.475e-01,1.009e+00
7.525e-01,1.062e+00
7.575e-01,1.120e+00
7.625e-01,1.183e+00
7.675e-01,1.252e+00
7.725e-01,1.327e+00
7.775e-01,1.409e+00
7.825e-01,1.498e+00
7.875e-01,1.595e+00
7.925e-01,1.702e+00
7.975e-01,1.818e+00
8.025e-01,1.945e+00
8.075e-01,2.085e+00
8.125e-01,2.238e+00
8.175e-01,2.407e+00
8.225e-01,2.594e+00
8.275e-01,2.800e+00
8.325e-01,3.029e+00
8.375e-01,3.283e+00
8.425e-01,3.567e+00
8.475e-01,3.883e+00
8.525e-01,4.235e+00
8.575e-01,4.626e+00
8.625e-01,5.058e+00
8.675e-01,5.532e+00
8.725e-01,6.043e+00
8.775e-01,6.583e+00
8.825e-01,7.139e+00
8.875e-01,7.688e+00
8.925e-01,8.199e+00
8.975e-01,8.630e+00
9.025e-01,8.934e+00
9.075e-01,9.059e+00
9.125e-01,8.956e+00
9.175e-01,8.587e+00
9.225e-01,7.939e+00
9.275e-01,7.030e+00
9.325e-01,5.916e+00
9.375e-01,4.688e+00
9.425e-01,3.460e+00
9.475e-01,2.345e+00
9.525e-01,1.435e+00
9.575e-01,7.746e-01
9.625e-01,3.580e-01
9.675e-01,1.358e-01
9.725e-01,3.968e-02
9.775e-01,8.110e-03
9.825e-01,9.803e-04
9.875e-01,5.035e-05
9.925e-01,4.765e-07
9.975e-01,1.805e-11
