transmittance,probability_density
2.234e-03,2.042e-08
6.701e-03,2.519e-04
1.117e-02,1.300e-03
1.563e-02,2.099e-03
2.010e-02,3.251e-03
2.457e-02,5.446e-03
2.904e-02,8.960e-03
3.350e-02,1.393e-02
3.797e-02,2.044e-02
4.244e-02,2.852e-02
4.690e-02,3.816e-02
5.137e-02,4.938e-02
5.584e-02,6.217e-02
6.031e-02,7.657e-02
6.477e-02,9.263e-02
6.924e-02,1.104e-01
7.371e-02,1.301e-01
7.817e-02,1.517e-01
8.264e-02,1.753e-01
8.711e-02,2.010e-01
9.158e-02,2.290e-01
9.604e-02,2.593e-01
1.005e-01,2.919e-01
1.050e-01,3.270e-01
1.094e-01,3.645e-01
1.139e-01,4.045e-01
1.184e-01,4.469e-01
1.228e-01,4.918e-01
1.273e-01,5.390e-01
1.318e-01,5.886e-01
1.362e-01,6.405e-01
1.407e-01,6.946e-01
1.452e-01,7.507e-01
1.496e-01,8.086e-01
1.541e-01,8.684e-01
1.586e-01,9.297e-01
1.630e-01,9.925e-01
1.675e-01,1.056e+00
1.720e-01,1.121e+00
1.765e-01,1.187e+00
1.809e-01,1.253e+00
1.854e-01,1.320e+00
1.899e-01,1.387e+00
1.943e-01,1.453e+00
1.988e-01,1.519e+00
2.033e-01,1.585e+00
2.077e-01,1.649e+00
2.122e-01,1.713e+00
2.167e-01,1.776e+00
2.211e-01,1.837e+00
2.256e-01,1.896e+00
2.301e-01,1.953e+00
2.345e-01,2.009e+00
2.390e-01,2.062e+00
2.435e-01,2.113e+00
2.479e-01,2.162e+00
2.524e-01,2.209e+00
2.569e-01,2.252e+00
2.613e-01,2.293e+00
2.658e-01,2.331e+00
2.703e-01,2.367e+00
2.747e-01,2.400e+00
2.792e-01,2.429e+00
2.837e-01,2.456e+00
2.881e-01,2.481e+00
2.926e-01,2.502e+00
2.971e-01,2.520e+00
3.015e-01,2.536e+00
3.060e-01,2.549e+00
3.105e-01,2.559e+00
3.149e-01,2.566e+00
3.194e-01,2.571e+00
3.239e-01,2.573e+00
3.283e-01,2.573e+00
3.328e-01,2.570e+00
3.373e-01,2.566e+00
3.417e-01,2.558e+00
3.462e-01,2.549e+00
3.507e-01,2.538e+00
3.551e-01,2.525e+00
3.596e-01,2.509e+00
3.641e-01,2.492e+00
3.685e-01,2.474e+00
3.730e-01,2.454e+00
3.775e-01,2.432e+00
3.819e-01,2.409e+00
3.864e-01,2.384e+00
3.909e-01,2.359e+00
3.953e-01,2.332e+00
3.998e-01,2.304e+00
4.043e-01,2.275e+00
4.087e-01,2.246e+00
4.132e-01,2.215e+00
4.177e-01,2.184e+00
4.221e-01,2.152e+00
4.266e-01,2.119e+00
4.311e-01,2.087e+00
4.355e-01,2.053e+00
4.400e-01,2.019e+00
4.445e-01,1.985e+00
4.489e-01,1.951e+00
4.534e-01,1.916e+00
4.579e-01,1.882e+00
4.623e-01,1.847e+00
4.668e-01,1.812e+00
4.713e-01,1.777e+00
4.757e-01,1.743e+00
4.802e-01,1.708e+00
4.847e-01,1.673e+00
4.891e-01,1.639e+00
4.936e-01,1.605e+00
4.981e-01,1.571e+00
5.025e-01,1.537e+00
5.070e-01,1.504e+00
5.115e-01,1.471e+00
5.160e-01,1.438e+00
5.204e-01,1.405e+00
5.249e-01,1.373e+00
5.294e-01,1.342e+00
5.338e-01,1.310e+00
5.383e-01,1.280e+00
5.428e-01,1.249e+00
5.472e-01,1.219e+00
5.517e-01,1.190e+00
5.562e-01,1.161e+00
5.606e-01,1.132e+00
5.651e-01,1.104e+00
5.696e-01,1.077e+00
5.740e-01,1.049e+00
5.785e-01,1.023e+00
5.830e-01,9.968e-01
5.874e-01,9.711e-01
5.919e-01,9.460e-01
5.964e-01,9.214e-01
6.008e-01,8.973e-01
6.053e-01,8.737e-01
6.098e-01,8.505e-01
6.142e-01,8.279e-01
6.187e-01,8.057e-01
6.232e-01,7.841e-01
6.276e-01,7.629e-01
6.321e-01,7.422e-01
6.366e-01,7.219e-01
6.410e-01,7.021e-01
6.455e-01,6.828e-01
6.500e-01,6.639e-01
6.544e-01,6.455e-01
6.589e-01,6.275e-01
6.634e-01,6.100e-01
6.678e-01,5.929e-01
6.723e-01,5.762e-01
6.768e-01,5.599e-01
6.812e-01,5.440e-01
6.857e-01,5.286e-01
6.902e-01,5.135e-01
6.946e-01,4.988e-01
6.991e-01,4.845e-01
7.036e-01,4.706e-01
7.080e-01,4.570e-01
7.125e-01,4.438e-01
7.170e-01,4.309e-01
7.214e-01,4.184e-01
7.259e-01,4.062e-01
7.304e-01,3.944e-01
7.348e-01,3.828e-01
7.393e-01,3.716e-01
7.438e-01,3.607e-01
7.482e-01,3.501e-01
7.527e-01,3.397e-01
7.572e-01,3.297e-01
7.616e-01,3.199e-01
7.661e-01,3.105e-01
7.706e-01,3.012e-01
7.750e-01,2.923e-01
7.795e-01,2.836e-01
7.840e-01,2.751e-01
7.884e-01,2.669e-01
7.929e-01,2.589e-01
7.974e-01,2.512e-01
8.018e-01,2.436e-01
8.063e-01,2.363e-01
8.108e-01,2.292e-01
8.152e-01,2.223e-01
8.197e-01,2.156e-01
8.242e-01,2.091e-01
8.286e-01,2.028e-01
8.331e-01,1.967e-01
8.376e-01,1.907e-01
8.420e-01,1.849e-01
8.465e-01,1.793e-01
8.510e-01,1.739e-01
8.554e-01,1.686e-01
8.599e-01,1.635e-01
8.644e-01,1.585e-01
8.689e-01,1.537e-01
8.733e-01,1.490e-01
8.778e-01,1.445e-01
8.823e-01,1.401e-01
8.867e-01,1.358e-01
8.912e-01,1.317e-01
