transmittance,probability_density
1.904e-03,2.143e-01
5.711e-03,7.116e-01
9.518e-03,1.129e+00
1.332e-02,1.454e+00
1.713e-02,1.708e+00
2.094e-02,1.909e+00
2.475e-02,2.072e+00
2.855e-02,2.208e+00
3.236e-02,2.324e+00
3.617e-02,2.425e+00
3.997e-02,2.514e+00
4.378e-02,2.593e+00
4.759e-02,2.664e+00
5.140e-02,2.728e+00
5.520e-02,2.785e+00
5.901e-02,2.836e+00
6.282e-02,2.882e+00
6.662e-02,2.922e+00
7.043e-02,2.957e+00
7.424e-02,2.988e+00
7.805e-02,3.013e+00
8.185e-02,3.035e+00
8.566e-02,3.052e+00
8.947e-02,3.066e+00
9.327e-02,3.076e+00
9.708e-02,3.083e+00
1.009e-01,3.087e+00
1.047e-01,3.088e+00
1.085e-01,3.086e+00
1.123e-01,3.082e+00
1.161e-01,3.077e+00
1.199e-01,3.069e+00
1.237e-01,3.059e+00
1.275e-01,3.048e+00
1.313e-01,3.036e+00
1.352e-01,3.023e+00
1.390e-01,3.008e+00
1.428e-01,2.993e+00
1.466e-01,2.976e+00
1.504e-01,2.959e+00
1.542e-01,2.942e+00
1.580e-01,2.923e+00
1.618e-01,2.904e+00
1.656e-01,2.885e+00
1.694e-01,2.865e+00
1.732e-01,2.845e+00
1.770e-01,2.824e+00
1.808e-01,2.803e+00
1.846e-01,2.781e+00
1.885e-01,2.759e+00
1.923e-01,2.736e+00
1.961e-01,2.714e+00
1.999e-01,2.690e+00
2.037e-01,2.667e+00
2.075e-01,2.643e+00
2.113e-01,2.618e+00
2.151e-01,2.594e+00
2.189e-01,2.568e+00
2.227e-01,2.543e+00
2.265e-01,2.516e+00
2.303e-01,2.490e+00
2.341e-01,2.463e+00
2.379e-01,2.435e+00
2.418e-01,2.407e+00
2.456e-01,2.379e+00
2.494e-01,2.350e+00
2.532e-01,2.320e+00
2.570e-01,2.290e+00
2.608e-01,2.260e+00
2.646e-01,2.229e+00
2.684e-01,2.198e+00
2.722e-01,2.166e+00
2.760e-01,2.134e+00
2.798e-01,2.102e+00
2.836e-01,2.069e+00
2.874e-01,2.036e+00
2.912e-01,2.002e+00
2.951e-01,1.968e+00
2.989e-01,1.934e+00
3.027e-01,1.900e+00
3.065e-01,1.865e+00
3.103e-01,1.830e+00
3.141e-01,1.795e+00
3.179e-01,1.759e+00
3.217e-01,1.724e+00
3.255e-01,1.688e+00
3.293e-01,1.652e+00
3.331e-01,1.617e+00
3.369e-01,1.581e+00
3.407e-01,1.545e+00
3.445e-01,1.509e+00
3.483e-01,1.473e+00
3.522e-01,1.438e+00
3.560e-01,1.402e+00
3.598e-01,1.367e+00
3.636e-01,1.331e+00
3.674e-01,1.296e+00
3.712e-01,1.261e+00
3.750e-01,1.227e+00
3.788e-01,1.192e+00
3.826e-01,1.158e+00
3.864e-01,1.125e+00
3.902e-01,1.091e+00
3.940e-01,1.058e+00
3.978e-01,1.026e+00
4.016e-01,9.937e-01
4.055e-01,9.620e-01
4.093e-01,9.307e-01
4.131e-01,8.999e-01
4.169e-01,8.696e-01
4.207e-01,8.398e-01
4.245e-01,8.106e-01
4.283e-01,7.819e-01
4.321e-01,7.537e-01
4.359e-01,7.261e-01
4.397e-01,6.990e-01
4.435e-01,6.726e-01
4.473e-01,6.467e-01
4.511e-01,6.214e-01
4.549e-01,5.967e-01
4.588e-01,5.726e-01
4.626e-01,5.492e-01
4.664e-01,5.263e-01
4.702e-01,5.041e-01
4.740e-01,4.824e-01
4.778e-01,4.614e-01
4.816e-01,4.410e-01
4.854e-01,4.212e-01
4.892e-01,4.020e-01
4.930e-01,3.834e-01
4.968e-01,3.654e-01
5.006e-01,3.480e-01
5.044e-01,3.312e-01
5.082e-01,3.149e-01
5.121e-01,2.993e-01
5.159e-01,2.842e-01
5.197e-01,2.696e-01
5.235e-01,2.556e-01
5.273e-01,2.422e-01
5.311e-01,2.293e-01
5.349e-01,2.169e-01
5.387e-01,2.049e-01
5.425e-01,1.935e-01
5.463e-01,1.826e-01
5.501e-01,1.722e-01
5.539e-01,1.622e-01
5.577e-01,1.526e-01
5.615e-01,1.435e-01
5.654e-01,1.349e-01
5.692e-01,1.266e-01
5.730e-01,1.187e-01
5.768e-01,1.112e-01
5.806e-01,1.041e-01
5.844e-01,9.739e-02
5.882e-01,9.100e-02
5.920e-01,8.495e-02
5.958e-01,7.922e-02
5.996e-01,7.380e-02
6.034e-01,6.868e-02
6.072e-01,6.386e-02
6.110e-01,5.931e-02
6.148e-01,5.502e-02
6.187e-01,5.099e-02
6.225e-01,4.721e-02
6.263e-01,4.365e-02
6.301e-01,4.032e-02
6.339e-01,3.720e-02
6.377e-01,3.428e-02
6.415e-01,3.155e-02
6.453e-01,2.901e-02
6.491e-01,2.663e-02
6.529e-01,2.442e-02
6.567e-01,2.237e-02
6.605e-01,2.046e-02
6.643e-01,1.869e-02
6.681e-01,1.705e-02
6.720e-01,1.553e-02
6.758e-01,1.412e-02
6.796e-01,1.283e-02
6.834e-01,1.163e-02
6.872e-01,1.054e-02
6.910e-01,9.525e-03
6.948e-01,8.599e-03
6.986e-01,7.750e-03
7.024e-01,6.973e-03
7.062e-01,6.263e-03
7.100e-01,5.616e-03
7.138e-01,5.027e-03
7.176e-01,4.491e-03
7.214e-01,4.005e-03
7.253e-01,3.565e-03
7.291e-01,3.167e-03
7.329e-01,2.807e-03
7.367e-01,2.484e-03
7.405e-01,2.193e-03
7.443e-01,1.931e-03
7.481e-01,1.697e-03
7.519e-01,1.488e-03
7.557e-01,1.302e-03
7.595e-01,1.136e-03
