transmittance,probability_density
2.152e-03,2.743e-03
6.456e-03,2.186e-02
1.076e-02,5.494e-02
1.507e-02,9.727e-02
1.937e-02,1.449e-01
2.367e-02,1.950e-01
2.798e-02,2.452e-01
3.228e-02,2.942e-01
3.659e-02,3.409e-01
4.089e-02,3.850e-01
4.520e-02,4.260e-01
4.950e-02,4.639e-01
5.380e-02,4.989e-01
5.811e-02,5.310e-01
6.241e-02,5.606e-01
6.672e-02,5.879e-01
7.102e-02,6.132e-01
7.533e-02,6.368e-01
7.963e-02,6.590e-01
8.393e-02,6.800e-01
8.824e-02,7.002e-01
9.254e-02,7.198e-01
9.685e-02,7.389e-01
1.012e-01,7.577e-01
1.055e-01,7.765e-01
1.098e-01,7.954e-01
1.141e-01,8.144e-01
1.184e-01,8.337e-01
1.227e-01,8.533e-01
1.270e-01,8.733e-01
1.313e-01,8.937e-01
1.356e-01,9.147e-01
1.399e-01,9.360e-01
1.442e-01,9.579e-01
1.485e-01,9.802e-01
1.528e-01,1.003e+00
1.571e-01,1.026e+00
1.614e-01,1.050e+00
1.657e-01,1.074e+00
1.700e-01,1.098e+00
1.743e-01,1.122e+00
1.786e-01,1.147e+00
1.829e-01,1.172e+00
1.872e-01,1.197e+00
1.915e-01,1.222e+00
1.958e-01,1.247e+00
2.001e-01,1.273e+00
2.045e-01,1.298e+00
2.088e-01,1.323e+00
2.131e-01,1.348e+00
2.174e-01,1.372e+00
2.217e-01,1.397e+00
2.260e-01,1.422e+00
2.303e-01,1.446e+00
2.346e-01,1.470e+00
2.389e-01,1.493e+00
2.432e-01,1.517e+00
2.475e-01,1.540e+00
2.518e-01,1.563e+00
2.561e-01,1.585e+00
2.604e-01,1.608e+00
2.647e-01,1.630e+00
2.690e-01,1.651e+00
2.733e-01,1.673e+00
2.776e-01,1.694e+00
2.819e-01,1.715e+00
2.862e-01,1.736e+00
2.905e-01,1.756e+00
2.948e-01,1.777e+00
2.991e-01,1.797e+00
3.035e-01,1.816e+00
3.078e-01,1.836e+00
3.121e-01,1.855e+00
3.164e-01,1.875e+00
3.207e-01,1.894e+00
3.250e-01,1.913e+00
3.293e-01,1.931e+00
3.336e-01,1.950e+00
3.379e-01,1.968e+00
3.422e-01,1.986e+00
3.465e-01,2.003e+00
3.508e-01,2.021e+00
3.551e-01,2.038e+00
3.594e-01,2.055e+00
3.637e-01,2.072e+00
3.680e-01,2.088e+00
3.723e-01,2.104e+00
3.766e-01,2.119e+00
3.809e-01,2.134e+00
3.852e-01,2.148e+00
3.895e-01,2.162e+00
3.938e-01,2.175e+00
3.981e-01,2.188e+00
4.025e-01,2.200e+00
4.068e-01,2.211e+00
4.111e-01,2.221e+00
4.154e-01,2.231e+00
4.197e-01,2.239e+00
4.240e-01,2.247e+00
4.283e-01,2.253e+00
4.326e-01,2.258e+00
4.369e-01,2.263e+00
4.412e-01,2.265e+00
4.455e-01,2.267e+00
4.498e-01,2.267e+00
4.541e-01,2.266e+00
4.584e-01,2.264e+00
4.627e-01,2.260e+00
4.670e-01,2.254e+00
4.713e-01,2.247e+00
4.756e-01,2.238e+00
4.799e-01,2.228e+00
4.842e-01,2.216e+00
4.885e-01,2.203e+00
4.928e-01,2.187e+00
4.971e-01,2.170e+00
5.015e-01,2.152e+00
5.058e-01,2.131e+00
5.101e-01,2.109e+00
5.144e-01,2.085e+00
5.187e-01,2.060e+00
5.230e-01,2.033e+00
5.273e-01,2.004e+00
5.316e-01,1.974e+00
5.359e-01,1.942e+00
5.402e-01,1.908e+00
5.445e-01,1.874e+00
5.488e-01,1.838e+00
5.531e-01,1.800e+00
5.574e-01,1.762e+00
5.617e-01,1.722e+00
5.660e-01,1.681e+00
5.703e-01,1.639e+00
5.746e-01,1.596e+00
5.789e-01,1.553e+00
5.832e-01,1.508e+00
5.875e-01,1.463e+00
5.918e-01,1.418e+00
5.961e-01,1.372e+00
6.004e-01,1.326e+00
6.048e-01,1.279e+00
6.091e-01,1.233e+00
6.134e-01,1.186e+00
6.177e-01,1.140e+00
6.220e-01,1.094e+00
6.263e-01,1.048e+00
6.306e-01,1.002e+00
6.349e-01,9.569e-01
6.392e-01,9.123e-01
6.435e-01,8.683e-01
6.478e-01,8.251e-01
6.521e-01,7.827e-01
6.564e-01,7.412e-01
6.607e-01,7.007e-01
6.650e-01,6.611e-01
6.693e-01,6.227e-01
6.736e-01,5.853e-01
6.779e-01,5.491e-01
6.822e-01,5.142e-01
6.865e-01,4.805e-01
6.908e-01,4.480e-01
6.951e-01,4.169e-01
6.994e-01,3.871e-01
7.038e-01,3.586e-01
7.081e-01,3.315e-01
7.124e-01,3.057e-01
7.167e-01,2.812e-01
7.210e-01,2.580e-01
7.253e-01,2.362e-01
7.296e-01,2.156e-01
7.339e-01,1.963e-01
7.382e-01,1.783e-01
7.425e-01,1.614e-01
7.468e-01,1.457e-01
7.511e-01,1.312e-01
7.554e-01,1.177e-01
7.597e-01,1.053e-01
7.640e-01,9.384e-02
7.683e-01,8.337e-02
7.726e-01,7.381e-02
7.769e-01,6.510e-02
7.812e-01,5.721e-02
7.855e-01,5.007e-02
7.898e-01,4.365e-02
7.941e-01,3.789e-02
7.984e-01,3.275e-02
8.028e-01,2.817e-02
8.071e-01,2.412e-02
8.114e-01,2.055e-02
8.157e-01,1.742e-02
8.200e-01,1.469e-02
8.243e-01,1.231e-02
8.286e-01,1.026e-02
8.329e-01,8.498e-03
8.372e-01,6.992e-03
8.415e-01,5.714e-03
8.458e-01,4.636e-03
8.501e-01,3.733e-03
8.544e-01,2.982e-03
8.587e-01,2.362e-03
