transmittance,probability_density
1.223e-03,2.292e+00
3.669e-03,5.347e+00
6.115e-03,7.139e+00
8.560e-03,8.257e+00
1.101e-02,8.978e+00
1.345e-02,9.439e+00
1.590e-02,9.719e+00
1.834e-02,9.868e+00
2.079e-02,9.920e+00
2.324e-02,9.900e+00
2.568e-02,9.825e+00
2.813e-02,9.709e+00
3.057e-02,9.563e+00
3.302e-02,9.394e+00
3.546e-02,9.209e+00
3.791e-02,9.012e+00
4.036e-02,8.806e+00
4.280e-02,8.595e+00
4.525e-02,8.381e+00
4.769e-02,8.165e+00
5.014e-02,7.950e+00
5.259e-02,7.735e+00
5.503e-02,7.522e+00
5.748e-02,7.311e+00
5.992e-02,7.103e+00
6.237e-02,6.898e+00
6.482e-02,6.697e+00
6.726e-02,6.499e+00
6.971e-02,6.306e+00
7.215e-02,6.116e+00
7.460e-02,5.931e+00
7.704e-02,5.749e+00
7.949e-02,5.572e+00
8.194e-02,5.399e+00
8.438e-02,5.230e+00
8.683e-02,5.065e+00
8.927e-02,4.905e+00
9.172e-02,4.748e+00
9.417e-02,4.595e+00
9.661e-02,4.447e+00
9.906e-02,4.302e+00
1.015e-01,4.161e+00
1.039e-01,4.024e+00
1.064e-01,3.891e+00
1.088e-01,3.761e+00
1.113e-01,3.635e+00
1.137e-01,3.512e+00
1.162e-01,3.393e+00
1.186e-01,3.278e+00
1.211e-01,3.165e+00
1.235e-01,3.056e+00
1.260e-01,2.950e+00
1.284e-01,2.847e+00
1.309e-01,2.748e+00
1.333e-01,2.651e+00
1.357e-01,2.557e+00
1.382e-01,2.466e+00
1.406e-01,2.378e+00
1.431e-01,2.293e+00
1.455e-01,2.210e+00
1.480e-01,2.130e+00
1.504e-01,2.052e+00
1.529e-01,1.977e+00
1.553e-01,1.904e+00
1.578e-01,1.834e+00
1.602e-01,1.766e+00
1.626e-01,1.700e+00
1.651e-01,1.636e+00
1.675e-01,1.574e+00
1.700e-01,1.514e+00
1.724e-01,1.457e+00
1.749e-01,1.401e+00
1.773e-01,1.347e+00
1.798e-01,1.295e+00
1.822e-01,1.245e+00
1.847e-01,1.196e+00
1.871e-01,1.149e+00
1.896e-01,1.104e+00
1.920e-01,1.060e+00
1.944e-01,1.018e+00
1.969e-01,9.777e-01
1.993e-01,9.384e-01
2.018e-01,9.006e-01
2.042e-01,8.641e-01
2.067e-01,8.290e-01
2.091e-01,7.951e-01
2.116e-01,7.624e-01
2.140e-01,7.310e-01
2.165e-01,7.007e-01
2.189e-01,6.715e-01
2.213e-01,6.434e-01
2.238e-01,6.164e-01
2.262e-01,5.903e-01
2.287e-01,5.653e-01
2.311e-01,5.412e-01
2.336e-01,5.180e-01
2.360e-01,4.957e-01
2.385e-01,4.743e-01
2.409e-01,4.537e-01
2.434e-01,4.339e-01
2.458e-01,4.149e-01
2.483e-01,3.967e-01
2.507e-01,3.791e-01
2.531e-01,3.623e-01
2.556e-01,3.461e-01
2.580e-01,3.306e-01
2.605e-01,3.157e-01
2.629e-01,3.014e-01
2.654e-01,2.877e-01
2.678e-01,2.746e-01
2.703e-01,2.620e-01
2.727e-01,2.499e-01
2.752e-01,2.383e-01
2.776e-01,2.272e-01
2.800e-01,2.166e-01
2.825e-01,2.065e-01
2.849e-01,1.967e-01
2.874e-01,1.874e-01
2.898e-01,1.785e-01
2.923e-01,1.699e-01
2.947e-01,1.618e-01
2.972e-01,1.540e-01
2.996e-01,1.465e-01
3.021e-01,1.394e-01
3.045e-01,1.326e-01
3.070e-01,1.260e-01
3.094e-01,1.198e-01
3.118e-01,1.139e-01
3.143e-01,1.082e-01
3.167e-01,1.028e-01
3.192e-01,9.763e-02
3.216e-01,9.270e-02
3.241e-01,8.800e-02
3.265e-01,8.351e-02
3.290e-01,7.924e-02
3.314e-01,7.516e-02
3.339e-01,7.128e-02
3.363e-01,6.758e-02
3.388e-01,6.405e-02
3.412e-01,6.070e-02
3.436e-01,5.750e-02
3.461e-01,5.446e-02
3.485e-01,5.157e-02
3.510e-01,4.882e-02
3.534e-01,4.620e-02
3.559e-01,4.372e-02
3.583e-01,4.135e-02
3.608e-01,3.910e-02
3.632e-01,3.697e-02
3.657e-01,3.494e-02
3.681e-01,3.302e-02
3.705e-01,3.119e-02
3.730e-01,2.945e-02
3.754e-01,2.781e-02
3.779e-01,2.625e-02
3.803e-01,2.477e-02
3.828e-01,2.336e-02
3.852e-01,2.204e-02
3.877e-01,2.078e-02
3.901e-01,1.958e-02
3.926e-01,1.845e-02
3.950e-01,1.738e-02
3.975e-01,1.637e-02
3.999e-01,1.541e-02
4.023e-01,1.451e-02
4.048e-01,1.365e-02
4.072e-01,1.284e-02
4.097e-01,1.207e-02
4.121e-01,1.135e-02
4.146e-01,1.067e-02
4.170e-01,1.002e-02
4.195e-01,9.411e-03
4.219e-01,8.837e-03
4.244e-01,8.295e-03
4.268e-01,7.783e-03
4.292e-01,7.301e-03
4.317e-01,6.847e-03
4.341e-01,6.418e-03
4.366e-01,6.015e-03
4.390e-01,5.635e-03
4.415e-01,5.278e-03
4.439e-01,4.941e-03
4.464e-01,4.624e-03
4.488e-01,4.327e-03
4.513e-01,4.047e-03
4.537e-01,3.784e-03
4.562e-01,3.536e-03
4.586e-01,3.304e-03
4.610e-01,3.086e-03
4.635e-01,2.882e-03
4.659e-01,2.689e-03
4.684e-01,2.509e-03
4.708e-01,2.340e-03
4.733e-01,2.182e-03
4.757e-01,2.034e-03
4.782e-01,1.895e-03
4.806e-01,1.765e-03
4.831e-01,1.643e-03
4.855e-01,1.529e-03
4.879e-01,1.422e-03
