transmittance,probability_density
2.500e-03,8.766e-06
7.500e-03,2.541e-04
1.250e-02,1.124e-03
1.750e-02,2.863e-03
2.250e-02,5.585e-03
2.750e-02,9.319e-03
3.250e-02,1.405e-02
3.750e-02,1.971e-02
4.250e-02,2.626e-02
4.750e-02,3.361e-02
5.250e-02,4.169e-02
5.750e-02,5.042e-02
6.250e-02,5.973e-02
6.750e-02,6.955e-02
7.250e-02,7.980e-02
7.750e-02,9.041e-02
8.250e-02,1.013e-01
8.750e-02,1.124e-01
9.250e-02,1.237e-01
9.750e-02,1.350e-01
1.025e-01,1.464e-01
1.075e-01,1.577e-01
1.125e-01,1.689e-01
1.175e-01,1.799e-01
1.225e-01,1.908e-01
1.275e-01,2.015e-01
1.325e-01,2.118e-01
1.375e-01,2.219e-01
1.425e-01,2.317e-01
1.475e-01,2.411e-01
1.525e-01,2.503e-01
1.575e-01,2.591e-01
1.625e-01,2.676e-01
1.675e-01,2.758e-01
1.725e-01,2.838e-01
1.775e-01,2.916e-01
1.825e-01,2.992e-01
1.875e-01,3.066e-01
1.925e-01,3.139e-01
1.975e-01,3.212e-01
2.025e-01,3.285e-01
2.075e-01,3.358e-01
2.125e-01,3.432e-01
2.175e-01,3.508e-01
2.225e-01,3.585e-01
2.275e-01,3.665e-01
2.325e-01,3.749e-01
2.375e-01,3.835e-01
2.425e-01,3.925e-01
2.475e-01,4.020e-01
2.525e-01,4.119e-01
2.575e-01,4.223e-01
2.625e-01,4.333e-01
2.675e-01,4.448e-01
2.725e-01,4.569e-01
2.775e-01,4.697e-01
2.825e-01,4.831e-01
2.875e-01,4.972e-01
2.925e-01,5.120e-01
2.975e-01,5.275e-01
3.025e-01,5.438e-01
3.075e-01,5.608e-01
3.125e-01,5.787e-01
3.175e-01,5.973e-01
3.225e-01,6.167e-01
3.275e-01,6.370e-01
3.325e-01,6.580e-01
3.375e-01,6.799e-01
3.425e-01,7.027e-01
3.475e-01,7.263e-01
3.525e-01,7.508e-01
3.575e-01,7.761e-01
3.625e-01,8.023e-01
3.675e-01,8.293e-01
3.725e-01,8.572e-01
3.775e-01,8.859e-01
3.825e-01,9.155e-01
3.875e-01,9.459e-01
3.925e-01,9.771e-01
3.975e-01,1.009e+00
4.025e-01,1.042e+00
4.075e-01,1.076e+00
4.125e-01,1.110e+00
4.175e-01,1.145e+00
4.225e-01,1.181e+00
4.275e-01,1.218e+00
4.325e-01,1.256e+00
4.375e-01,1.294e+00
4.425e-01,1.333e+00
4.475e-01,1.373e+00
4.525e-01,1.413e+00
4.575e-01,1.454e+00
4.625e-01,1.496e+00
4.675e-01,1.539e+00
4.725e-01,1.583e+00
4.775e-01,1.627e+00
4.825e-01,1.672e+00
4.875e-01,1.717e+00
4.925e-01,1.764e+00
4.975e-01,1.811e+00
5.025e-01,1.859e+00
5.075e-01,1.908e+00
5.125e-01,1.957e+00
5.175e-01,2.007e+00
5.225e-01,2.057e+00
5.275e-01,2.108e+00
5.325e-01,2.159e+00
5.375e-01,2.211e+00
5.425e-01,2.263e+00
5.475e-01,2.315e+00
5.525e-01,2.368e+00
5.575e-01,2.420e+00
5.625e-01,2.471e+00
5.675e-01,2.523e+00
5.725e-01,2.573e+00
5.775e-01,2.623e+00
5.825e-01,2.671e+00
5.875e-01,2.717e+00
5.925e-01,2.762e+00
5.975e-01,2.805e+00
6.025e-01,2.845e+00
6.075e-01,2.883e+00
6.125e-01,2.917e+00
6.175e-01,2.948e+00
6.225e-01,2.974e+00
6.275e-01,2.996e+00
6.325e-01,3.014e+00
6.375e-01,3.026e+00
6.425e-01,3.033e+00
6.475e-01,3.035e+00
6.525e-01,3.030e+00
6.575e-01,3.019e+00
6.625e-01,3.001e+00
6.675e-01,2.976e+00
6.725e-01,2.945e+00
6.775e-01,2.906e+00
6.825e-01,2.861e+00
6.875e-01,2.808e+00
6.925e-01,2.749e+00
6.975e-01,2.683e+00
7.025e-01,2.610e+00
7.075e-01,2.531e+00
7.125e-01,2.446e+00
7.175e-01,2.356e+00
7.225e-01,2.261e+00
7.275e-01,2.161e+00
7.325e-01,2.058e+00
7.375e-01,1.952e+00
7.425e-01,1.843e+00
7.475e-01,1.733e+00
7.525e-01,1.622e+00
7.575e-01,1.511e+00
7.625e-01,1.401e+00
7.675e-01,1.292e+00
7.725e-01,1.185e+00
7.775e-01,1.080e+00
7.825e-01,9.797e-01
7.875e-01,8.829e-01
7.925e-01,7.906e-01
7.975e-01,7.033e-01
8.025e-01,6.212e-01
8.075e-01,5.448e-01
8.125e-01,4.740e-01
8.175e-01,4.092e-01
8.225e-01,3.502e-01
8.275e-01,2.970e-01
8.325e-01,2.495e-01
8.375e-01,2.076e-01
8.425e-01,1.708e-01
8.475e-01,1.390e-01
8.525e-01,1.118e-01
8.575e-01,8.877e-02
8.625e-01,6.953e-02
8.675e-01,5.366e-02
8.725e-01,4.078e-02
8.775e-01,3.046e-02
8.825e-01,2.235e-02
8.875e-01,1.607e-02
8.925e-01,1.131e-02
8.975e-01,7.778e-03
9.025e-01,5.211e-03
9.075e-01,3.393e-03
9.125e-01,2.141e-03
9.175e-01,1.304e-03
9.225e-01,7.633e-04
9.275e-01,4.273e-04
9.325e-01,2.273e-04
9.375e-01,1.140e-04
9.425e-01,5.336e-05
9.475e-01,2.304e-05
9.525e-01,9.028e-06
9.575e-01,3.142e-06
9.625e-01,9.430e-07
9.675e-01,2.339e-07
9.725e-01,4.500e-08
9.775e-01,6.063e-09
9.825e-01,4.778e-10
9.875e-01,1.529e-11
9.925e-01,7.753e-14
9.975e-01,7.945e-19
