transmittance,probability_density
2.500e-03,2.953e-36
7.500e-03,5.963e-28
1.250e-02,4.059e-24
1.750e-02,1.302e-21
2.250e-02,9.393e-20
2.750e-02,2.788e-18
3.250e-02,4.590e-17
3.750e-02,4.964e-16
4.250e-02,3.918e-15
4.750e-02,2.421e-14
5.250e-02,1.230e-13
5.750e-02,5.321e-13
6.250e-02,2.015e-12
6.750e-02,6.811e-12
7.250e-02,2.090e-11
7.750e-02,5.894e-11
8.250e-02,1.544e-10
8.750e-02,3.790e-10
9.250e-02,8.779e-10
9.750e-02,1.930e-09
1.025e-01,4.050e-09
1.075e-01,8.145e-09
1.125e-01,1.576e-08
1.175e-01,2.943e-08
1.225e-01,5.320e-08
1.275e-01,9.333e-08
1.325e-01,1.593e-07
1.375e-01,2.649e-07
1.425e-01,4.301e-07
1.475e-01,6.829e-07
1.525e-01,1.062e-06
1.575e-01,1.619e-06
1.625e-01,2.424e-06
1.675e-01,3.567e-06
1.725e-01,5.163e-06
1.775e-01,7.357e-06
1.825e-01,1.033e-05
1.875e-01,1.431e-05
1.925e-01,1.956e-05
1.975e-01,2.640e-05
2.025e-01,3.521e-05
2.075e-01,4.643e-05
2.125e-01,6.056e-05
2.175e-01,7.818e-05
2.225e-01,9.992e-05
2.275e-01,1.265e-04
2.325e-01,1.587e-04
2.375e-01,1.973e-04
2.425e-01,2.434e-04
2.475e-01,2.977e-04
2.525e-01,3.615e-04
2.575e-01,4.356e-04
2.625e-01,5.212e-04
2.675e-01,6.195e-04
2.725e-01,7.315e-04
2.775e-01,8.583e-04
2.825e-01,1.001e-03
2.875e-01,1.161e-03
2.925e-01,1.339e-03
2.975e-01,1.536e-03
3.025e-01,1.754e-03
3.075e-01,1.993e-03
3.125e-01,2.254e-03
3.175e-01,2.538e-03
3.225e-01,2.846e-03
3.275e-01,3.179e-03
3.325e-01,3.539e-03
3.375e-01,3.925e-03
3.425e-01,4.339e-03
3.475e-01,4.782e-03
3.525e-01,5.256e-03
3.575e-01,5.761e-03
3.625e-01,6.299e-03
3.675e-01,6.872e-03
3.725e-01,7.481e-03
3.775e-01,8.129e-03
3.825e-01,8.817e-03
3.875e-01,9.549e-03
3.925e-01,1.033e-02
3.975e-01,1.115e-02
4.025e-01,1.203e-02
4.075e-01,1.297e-02
4.125e-01,1.397e-02
4.175e-01,1.503e-02
4.225e-01,1.616e-02
4.275e-01,1.737e-02
4.325e-01,1.866e-02
4.375e-01,2.003e-02
4.425e-01,2.150e-02
4.475e-01,2.307e-02
4.525e-01,2.474e-02
4.575e-01,2.653e-02
4.625e-01,2.844e-02
4.675e-01,3.047e-02
4.725e-01,3.265e-02
4.775e-01,3.497e-02
4.825e-01,3.745e-02
4.875e-01,4.009e-02
4.925e-01,4.291e-02
4.975e-01,4.590e-02
5.025e-01,4.910e-02
5.075e-01,5.250e-02
5.125e-01,5.611e-02
5.175e-01,5.994e-02
5.225e-01,6.402e-02
5.275e-01,6.834e-02
5.325e-01,7.293e-02
5.375e-01,7.778e-02
5.425e-01,8.292e-02
5.475e-01,8.836e-02
5.525e-01,9.410e-02
5.575e-01,1.002e-01
5.625e-01,1.066e-01
5.675e-01,1.134e-01
5.725e-01,1.205e-01
5.775e-01,1.280e-01
5.825e-01,1.360e-01
5.875e-01,1.443e-01
5.925e-01,1.532e-01
5.975e-01,1.625e-01
6.025e-01,1.723e-01
6.075e-01,1.827e-01
6.125e-01,1.936e-01
6.175e-01,2.052e-01
6.225e-01,2.175e-01
6.275e-01,2.305e-01
6.325e-01,2.444e-01
6.375e-01,2.591e-01
6.425e-01,2.749e-01
6.475e-01,2.917e-01
6.525e-01,3.098e-01
6.575e-01,3.293e-01
6.625e-01,3.503e-01
6.675e-01,3.730e-01
6.725e-01,3.976e-01
6.775e-01,4.244e-01
6.825e-01,4.537e-01
6.875e-01,4.858e-01
6.925e-01,5.209e-01
6.975e-01,5.595e-01
7.025e-01,6.021e-01
7.075e-01,6.490e-01
7.125e-01,7.009e-01
7.175e-01,7.584e-01
7.225e-01,8.220e-01
7.275e-01,8.925e-01
7.325e-01,9.708e-01
7.375e-01,1.058e+00
7.425e-01,1.154e+00
7.475e-01,1.261e+00
7.525e-01,1.379e+00
7.575e-01,1.511e+00
7.625e-01,1.657e+00
7.675e-01,1.819e+00
7.725e-01,1.999e+00
7.775e-01,2.198e+00
7.825e-01,2.419e+00
7.875e-01,2.664e+00
7.925e-01,2.937e+00
7.975e-01,3.238e+00
8.025e-01,3.573e+00
8.075e-01,3.943e+00
8.125e-01,4.350e+00
8.175e-01,4.798e+00
8.225e-01,5.286e+00
8.275e-01,5.811e+00
8.325e-01,6.370e+00
8.375e-01,6.951e+00
8.425e-01,7.541e+00
8.475e-01,8.116e+00
8.525e-01,8.649e+00
8.575e-01,9.104e+00
8.625e-01,9.442e+00
8.675e-01,9.623e+00
8.725e-01,9.607e+00
8.775e-01,9.369e+00
8.825e-01,8.893e+00
8.875e-01,8.189e+00
8.925e-01,7.286e+00
8.975e-01,6.238e+00
9.025e-01,5.116e+00
9.075e-01,3.999e+00
9.125e-01,2.962e+00
9.175e-01,2.065e+00
9.225e-01,1.345e+00
9.275e-01,8.117e-01
9.325e-01,4.489e-01
9.375e-01,2.246e-01
9.425e-01,1.002e-01
9.475e-01,3.911e-02
9.525e-01,1.304e-02
9.575e-01,3.604e-03
9.625e-01,7.940e-04
9.675e-01,1.322e-04
9.725e-01,1.545e-05
9.775e-01,1.132e-06
9.825e-01,4.294e-08
9.875e-01,5.671e-10
9.925e-01,9.101e-13
9.975e-01,1.326e-18
