transmittance,probability_density
1.810e-03,3.822e-02
5.429e-03,2.404e-01
9.048e-03,4.893e-01
1.267e-02,7.294e-01
1.629e-02,9.475e-01
1.990e-02,1.144e+00
2.352e-02,1.322e+00
2.714e-02,1.486e+00
3.076e-02,1.636e+00
3.438e-02,1.775e+00
3.800e-02,1.903e+00
4.162e-02,2.021e+00
4.524e-02,2.130e+00
4.886e-02,2.229e+00
5.248e-02,2.321e+00
5.609e-02,2.404e+00
5.971e-02,2.479e+00
6.333e-02,2.548e+00
6.695e-02,2.611e+00
7.057e-02,2.667e+00
7.419e-02,2.719e+00
7.781e-02,2.765e+00
8.143e-02,2.808e+00
8.505e-02,2.846e+00
8.867e-02,2.881e+00
9.228e-02,2.912e+00
9.590e-02,2.941e+00
9.952e-02,2.966e+00
1.031e-01,2.990e+00
1.068e-01,3.011e+00
1.104e-01,3.030e+00
1.140e-01,3.047e+00
1.176e-01,3.063e+00
1.212e-01,3.076e+00
1.249e-01,3.089e+00
1.285e-01,3.099e+00
1.321e-01,3.109e+00
1.357e-01,3.117e+00
1.393e-01,3.123e+00
1.430e-01,3.129e+00
1.466e-01,3.133e+00
1.502e-01,3.135e+00
1.538e-01,3.137e+00
1.574e-01,3.137e+00
1.610e-01,3.136e+00
1.647e-01,3.134e+00
1.683e-01,3.130e+00
1.719e-01,3.125e+00
1.755e-01,3.119e+00
1.791e-01,3.111e+00
1.828e-01,3.102e+00
1.864e-01,3.092e+00
1.900e-01,3.080e+00
1.936e-01,3.067e+00
1.972e-01,3.053e+00
2.009e-01,3.037e+00
2.045e-01,3.020e+00
2.081e-01,3.002e+00
2.117e-01,2.982e+00
2.153e-01,2.961e+00
2.189e-01,2.938e+00
2.226e-01,2.914e+00
2.262e-01,2.889e+00
2.298e-01,2.863e+00
2.334e-01,2.835e+00
2.370e-01,2.807e+00
2.407e-01,2.777e+00
2.443e-01,2.745e+00
2.479e-01,2.713e+00
2.515e-01,2.680e+00
2.551e-01,2.645e+00
2.588e-01,2.610e+00
2.624e-01,2.574e+00
2.660e-01,2.536e+00
2.696e-01,2.498e+00
2.732e-01,2.459e+00
2.769e-01,2.420e+00
2.805e-01,2.379e+00
2.841e-01,2.338e+00
2.877e-01,2.297e+00
2.913e-01,2.255e+00
2.949e-01,2.212e+00
2.986e-01,2.169e+00
3.022e-01,2.125e+00
3.058e-01,2.082e+00
3.094e-01,2.037e+00
3.130e-01,1.993e+00
3.167e-01,1.949e+00
3.203e-01,1.904e+00
3.239e-01,1.859e+00
3.275e-01,1.814e+00
3.311e-01,1.770e+00
3.348e-01,1.725e+00
3.384e-01,1.680e+00
3.420e-01,1.636e+00
3.456e-01,1.592e+00
3.492e-01,1.548e+00
3.529e-01,1.504e+00
3.565e-01,1.461e+00
3.601e-01,1.418e+00
3.637e-01,1.375e+00
3.673e-01,1.333e+00
3.709e-01,1.292e+00
3.746e-01,1.250e+00
3.782e-01,1.210e+00
3.818e-01,1.170e+00
3.854e-01,1.130e+00
3.890e-01,1.092e+00
3.927e-01,1.053e+00
3.963e-01,1.016e+00
3.999e-01,9.792e-01
4.035e-01,9.431e-01
4.071e-01,9.078e-01
4.108e-01,8.731e-01
4.144e-01,8.393e-01
4.180e-01,8.062e-01
4.216e-01,7.739e-01
4.252e-01,7.424e-01
4.289e-01,7.116e-01
4.325e-01,6.817e-01
4.361e-01,6.526e-01
4.397e-01,6.242e-01
4.433e-01,5.967e-01
4.469e-01,5.700e-01
4.506e-01,5.441e-01
4.542e-01,5.189e-01
4.578e-01,4.946e-01
4.614e-01,4.711e-01
4.650e-01,4.483e-01
4.687e-01,4.264e-01
4.723e-01,4.052e-01
4.759e-01,3.847e-01
4.795e-01,3.650e-01
4.831e-01,3.461e-01
4.868e-01,3.279e-01
4.904e-01,3.104e-01
4.940e-01,2.935e-01
4.976e-01,2.774e-01
5.012e-01,2.620e-01
5.049e-01,2.472e-01
5.085e-01,2.330e-01
5.121e-01,2.195e-01
5.157e-01,2.066e-01
5.193e-01,1.942e-01
5.229e-01,1.825e-01
5.266e-01,1.713e-01
5.302e-01,1.606e-01
5.338e-01,1.505e-01
5.374e-01,1.409e-01
5.410e-01,1.318e-01
5.447e-01,1.232e-01
5.483e-01,1.150e-01
5.519e-01,1.072e-01
5.555e-01,9.992e-02
5.591e-01,9.301e-02
5.628e-01,8.650e-02
5.664e-01,8.036e-02
5.700e-01,7.458e-02
5.736e-01,6.914e-02
5.772e-01,6.404e-02
5.808e-01,5.925e-02
5.845e-01,5.476e-02
5.881e-01,5.055e-02
5.917e-01,4.662e-02
5.953e-01,4.294e-02
5.989e-01,3.951e-02
6.026e-01,3.631e-02
6.062e-01,3.334e-02
6.098e-01,3.057e-02
6.134e-01,2.799e-02
6.170e-01,2.561e-02
6.207e-01,2.339e-02
6.243e-01,2.134e-02
6.279e-01,1.945e-02
6.315e-01,1.770e-02
6.351e-01,1.609e-02
6.388e-01,1.460e-02
6.424e-01,1.323e-02
6.460e-01,1.198e-02
6.496e-01,1.083e-02
6.532e-01,9.772e-03
6.568e-01,8.807e-03
6.605e-01,7.925e-03
6.641e-01,7.121e-03
6.677e-01,6.388e-03
6.713e-01,5.722e-03
6.749e-01,5.117e-03
6.786e-01,4.568e-03
6.822e-01,4.071e-03
6.858e-01,3.623e-03
6.894e-01,3.217e-03
6.930e-01,2.853e-03
6.967e-01,2.524e-03
7.003e-01,2.230e-03
7.039e-01,1.966e-03
7.075e-01,1.730e-03
7.111e-01,1.519e-03
7.148e-01,1.331e-03
7.184e-01,1.164e-03
7.220e-01,1.016e-03
