transmittance,probability_density
1.244e-01,2.800e-16
1.288e-01,6.825e-16
1.332e-01,1.609e-15
1.375e-01,3.678e-15
1.419e-01,8.163e-15
1.463e-01,1.763e-14
1.507e-01,3.709e-14
1.551e-01,7.617e-14
1.595e-01,1.528e-13
1.639e-01,3.000e-13
1.683e-01,5.769e-13
1.727e-01,1.088e-12
1.770e-01,2.012e-12
1.814e-01,3.657e-12
1.858e-01,6.535e-12
1.902e-01,1.149e-11
1.946e-01,1.988e-11
1.990e-01,3.391e-11
2.034e-01,5.700e-11
2.078e-01,9.451e-11
2.122e-01,1.547e-10
2.165e-01,2.500e-10
2.209e-01,3.991e-10
2.253e-01,6.298e-10
2.297e-01,9.826e-10
2.341e-01,1.517e-09
2.385e-01,2.316e-09
2.429e-01,3.502e-09
2.473e-01,5.244e-09
2.517e-01,7.777e-09
2.560e-01,1.143e-08
2.604e-01,1.665e-08
2.648e-01,2.404e-08
2.692e-01,3.443e-08
2.736e-01,4.891e-08
2.780e-01,6.893e-08
2.824e-01,9.641e-08
2.868e-01,1.339e-07
2.912e-01,1.845e-07
2.956e-01,2.525e-07
2.999e-01,3.433e-07
3.043e-01,4.635e-07
3.087e-01,6.218e-07
3.131e-01,8.289e-07
3.175e-01,1.098e-06
3.219e-01,1.446e-06
3.263e-01,1.893e-06
3.307e-01,2.465e-06
3.351e-01,3.190e-06
3.394e-01,4.107e-06
3.438e-01,5.258e-06
3.482e-01,6.697e-06
3.526e-01,8.487e-06
3.570e-01,1.070e-05
3.614e-01,1.343e-05
3.658e-01,1.676e-05
3.702e-01,2.083e-05
3.746e-01,2.577e-05
3.789e-01,3.174e-05
3.833e-01,3.891e-05
3.877e-01,4.750e-05
3.921e-01,5.774e-05
3.965e-01,6.990e-05
4.009e-01,8.427e-05
4.053e-01,1.012e-04
4.097e-01,1.210e-04
4.141e-01,1.442e-04
4.184e-01,1.712e-04
4.228e-01,2.025e-04
4.272e-01,2.386e-04
4.316e-01,2.802e-04
4.360e-01,3.279e-04
4.404e-01,3.824e-04
4.448e-01,4.446e-04
4.492e-01,5.151e-04
4.536e-01,5.950e-04
4.579e-01,6.851e-04
4.623e-01,7.866e-04
4.667e-01,9.004e-04
4.711e-01,1.028e-03
4.755e-01,1.170e-03
4.799e-01,1.328e-03
4.843e-01,1.504e-03
4.887e-01,1.698e-03
4.931e-01,1.913e-03
4.974e-01,2.150e-03
5.018e-01,2.411e-03
5.062e-01,2.697e-03
5.106e-01,3.011e-03
5.150e-01,3.355e-03
5.194e-01,3.731e-03
5.238e-01,4.141e-03
5.282e-01,4.587e-03
5.326e-01,5.074e-03
5.370e-01,5.602e-03
5.413e-01,6.176e-03
5.457e-01,6.800e-03
5.501e-01,7.476e-03
5.545e-01,8.208e-03
5.589e-01,9.002e-03
5.633e-01,9.861e-03
5.677e-01,1.079e-02
5.721e-01,1.180e-02
5.765e-01,1.289e-02
5.808e-01,1.407e-02
5.852e-01,1.534e-02
5.896e-01,1.673e-02
5.940e-01,1.822e-02
5.984e-01,1.984e-02
6.028e-01,2.159e-02
6.072e-01,2.348e-02
6.116e-01,2.553e-02
6.160e-01,2.776e-02
6.203e-01,3.016e-02
6.247e-01,3.277e-02
6.291e-01,3.558e-02
6.335e-01,3.864e-02
6.379e-01,4.194e-02
6.423e-01,4.552e-02
6.467e-01,4.940e-02
6.511e-01,5.359e-02
6.555e-01,5.812e-02
6.598e-01,6.303e-02
6.642e-01,6.833e-02
6.686e-01,7.406e-02
6.730e-01,8.025e-02
6.774e-01,8.694e-02
6.818e-01,9.416e-02
6.862e-01,1.020e-01
6.906e-01,1.104e-01
6.950e-01,1.194e-01
6.993e-01,1.292e-01
7.037e-01,1.398e-01
7.081e-01,1.512e-01
7.125e-01,1.635e-01
7.169e-01,1.767e-01
7.213e-01,1.911e-01
7.257e-01,2.066e-01
7.301e-01,2.234e-01
7.345e-01,2.416e-01
7.388e-01,2.614e-01
7.432e-01,2.830e-01
7.476e-01,3.065e-01
7.520e-01,3.323e-01
7.564e-01,3.606e-01
7.608e-01,3.919e-01
7.652e-01,4.265e-01
7.696e-01,4.649e-01
7.740e-01,5.078e-01
7.784e-01,5.559e-01
7.827e-01,6.100e-01
7.871e-01,6.710e-01
7.915e-01,7.403e-01
7.959e-01,8.191e-01
8.003e-01,9.090e-01
8.047e-01,1.012e+00
8.091e-01,1.130e+00
8.135e-01,1.266e+00
8.179e-01,1.423e+00
8.222e-01,1.603e+00
8.266e-01,1.812e+00
8.310e-01,2.054e+00
8.354e-01,2.334e+00
8.398e-01,2.658e+00
8.442e-01,3.034e+00
8.486e-01,3.471e+00
8.530e-01,3.978e+00
8.574e-01,4.566e+00
8.617e-01,5.249e+00
8.661e-01,6.038e+00
8.705e-01,6.944e+00
8.749e-01,7.972e+00
8.793e-01,9.116e+00
8.837e-01,1.035e+01
8.881e-01,1.164e+01
8.925e-01,1.288e+01
8.969e-01,1.397e+01
9.012e-01,1.477e+01
9.056e-01,1.510e+01
9.100e-01,1.485e+01
9.144e-01,1.392e+01
9.188e-01,1.236e+01
9.232e-01,1.030e+01
9.276e-01,7.971e+00
9.320e-01,5.675e+00
9.364e-01,3.671e+00
9.407e-01,2.129e+00
9.451e-01,1.089e+00
9.495e-01,4.827e-01
9.539e-01,1.812e-01
9.583e-01,5.612e-02
9.627e-01,1.391e-02
9.671e-01,2.663e-03
9.715e-01,3.774e-04
9.759e-01,3.754e-05
9.802e-01,2.408e-06
9.846e-01,8.365e-08
9.890e-01,1.058e-09
9.934e-01,1.730e-12
9.978e-01,3.605e-18
