transmittance,probability_density
1.914e-03,8.959e-03
5.743e-03,8.107e-02
9.571e-03,1.939e-01
1.340e-02,3.182e-01
1.723e-02,4.402e-01
2.106e-02,5.551e-01
2.489e-02,6.626e-01
2.871e-02,7.636e-01
3.254e-02,8.594e-01
3.637e-02,9.507e-01
4.020e-02,1.038e+00
4.403e-02,1.123e+00
4.786e-02,1.203e+00
5.169e-02,1.281e+00
5.551e-02,1.355e+00
5.934e-02,1.426e+00
6.317e-02,1.494e+00
6.700e-02,1.558e+00
7.083e-02,1.619e+00
7.466e-02,1.677e+00
7.849e-02,1.731e+00
8.231e-02,1.783e+00
8.614e-02,1.832e+00
8.997e-02,1.879e+00
9.380e-02,1.923e+00
9.763e-02,1.964e+00
1.015e-01,2.004e+00
1.053e-01,2.041e+00
1.091e-01,2.077e+00
1.129e-01,2.111e+00
1.168e-01,2.143e+00
1.206e-01,2.174e+00
1.244e-01,2.203e+00
1.283e-01,2.231e+00
1.321e-01,2.258e+00
1.359e-01,2.284e+00
1.397e-01,2.309e+00
1.436e-01,2.333e+00
1.474e-01,2.357e+00
1.512e-01,2.379e+00
1.551e-01,2.401e+00
1.589e-01,2.422e+00
1.627e-01,2.442e+00
1.665e-01,2.462e+00
1.704e-01,2.481e+00
1.742e-01,2.499e+00
1.780e-01,2.517e+00
1.819e-01,2.535e+00
1.857e-01,2.551e+00
1.895e-01,2.567e+00
1.933e-01,2.582e+00
1.972e-01,2.597e+00
2.010e-01,2.611e+00
2.048e-01,2.624e+00
2.087e-01,2.636e+00
2.125e-01,2.648e+00
2.163e-01,2.658e+00
2.201e-01,2.668e+00
2.240e-01,2.677e+00
2.278e-01,2.684e+00
2.316e-01,2.691e+00
2.355e-01,2.696e+00
2.393e-01,2.701e+00
2.431e-01,2.704e+00
2.469e-01,2.706e+00
2.508e-01,2.707e+00
2.546e-01,2.706e+00
2.584e-01,2.705e+00
2.623e-01,2.701e+00
2.661e-01,2.697e+00
2.699e-01,2.691e+00
2.737e-01,2.684e+00
2.776e-01,2.675e+00
2.814e-01,2.665e+00
2.852e-01,2.653e+00
2.891e-01,2.640e+00
2.929e-01,2.625e+00
2.967e-01,2.609e+00
3.005e-01,2.592e+00
3.044e-01,2.573e+00
3.082e-01,2.553e+00
3.120e-01,2.531e+00
3.159e-01,2.508e+00
3.197e-01,2.484e+00
3.235e-01,2.458e+00
3.273e-01,2.431e+00
3.312e-01,2.403e+00
3.350e-01,2.374e+00
3.388e-01,2.343e+00
3.427e-01,2.311e+00
3.465e-01,2.278e+00
3.503e-01,2.244e+00
3.541e-01,2.209e+00
3.580e-01,2.173e+00
3.618e-01,2.136e+00
3.656e-01,2.099e+00
3.695e-01,2.060e+00
3.733e-01,2.021e+00
3.771e-01,1.981e+00
3.809e-01,1.941e+00
3.848e-01,1.900e+00
3.886e-01,1.858e+00
3.924e-01,1.816e+00
3.963e-01,1.774e+00
4.001e-01,1.731e+00
4.039e-01,1.688e+00
4.077e-01,1.645e+00
4.116e-01,1.602e+00
4.154e-01,1.559e+00
4.192e-01,1.515e+00
4.231e-01,1.472e+00
4.269e-01,1.429e+00
4.307e-01,1.386e+00
4.345e-01,1.343e+00
4.384e-01,1.301e+00
4.422e-01,1.259e+00
4.460e-01,1.217e+00
4.499e-01,1.175e+00
4.537e-01,1.134e+00
4.575e-01,1.094e+00
4.613e-01,1.054e+00
4.652e-01,1.015e+00
4.690e-01,9.758e-01
4.728e-01,9.378e-01
4.767e-01,9.004e-01
4.805e-01,8.637e-01
4.843e-01,8.278e-01
4.881e-01,7.927e-01
4.920e-01,7.583e-01
4.958e-01,7.248e-01
4.996e-01,6.921e-01
5.035e-01,6.602e-01
5.073e-01,6.293e-01
5.111e-01,5.992e-01
5.149e-01,5.699e-01
5.188e-01,5.416e-01
5.226e-01,5.141e-01
5.264e-01,4.876e-01
5.303e-01,4.620e-01
5.341e-01,4.372e-01
5.379e-01,4.134e-01
5.417e-01,3.904e-01
5.456e-01,3.683e-01
5.494e-01,3.471e-01
5.532e-01,3.268e-01
5.571e-01,3.073e-01
5.609e-01,2.886e-01
5.647e-01,2.708e-01
5.685e-01,2.537e-01
5.724e-01,2.375e-01
5.762e-01,2.221e-01
5.800e-01,2.074e-01
5.839e-01,1.934e-01
5.877e-01,1.802e-01
5.915e-01,1.676e-01
5.953e-01,1.557e-01
5.992e-01,1.445e-01
6.030e-01,1.339e-01
6.068e-01,1.240e-01
6.107e-01,1.146e-01
6.145e-01,1.058e-01
6.183e-01,9.748e-02
6.221e-01,8.972e-02
6.260e-01,8.246e-02
6.298e-01,7.568e-02
6.336e-01,6.936e-02
6.375e-01,6.346e-02
6.413e-01,5.798e-02
6.451e-01,5.289e-02
6.489e-01,4.816e-02
6.528e-01,4.379e-02
6.566e-01,3.975e-02
6.604e-01,3.602e-02
6.643e-01,3.259e-02
6.681e-01,2.943e-02
6.719e-01,2.653e-02
6.757e-01,2.387e-02
6.796e-01,2.144e-02
6.834e-01,1.922e-02
6.872e-01,1.719e-02
6.911e-01,1.535e-02
6.949e-01,1.368e-02
6.987e-01,1.216e-02
7.025e-01,1.079e-02
7.064e-01,9.555e-03
7.102e-01,8.442e-03
7.140e-01,7.441e-03
7.179e-01,6.543e-03
7.217e-01,5.740e-03
7.255e-01,5.023e-03
7.293e-01,4.385e-03
7.332e-01,3.818e-03
7.370e-01,3.315e-03
7.408e-01,2.871e-03
7.447e-01,2.480e-03
7.485e-01,2.135e-03
7.523e-01,1.833e-03
7.561e-01,1.569e-03
7.600e-01,1.339e-03
7.638e-01,1.139e-03
