transmittance,probability_density
1.635e-01,3.395e-16
1.677e-01,6.985e-16
1.718e-01,1.409e-15
1.760e-01,2.787e-15
1.802e-01,5.415e-15
1.844e-01,1.034e-14
1.886e-01,1.941e-14
1.928e-01,3.587e-14
1.970e-01,6.528e-14
2.012e-01,1.171e-13
2.054e-01,2.070e-13
2.096e-01,3.612e-13
2.138e-01,6.221e-13
2.180e-01,1.058e-12
2.222e-01,1.778e-12
2.264e-01,2.953e-12
2.306e-01,4.849e-12
2.347e-01,7.878e-12
2.389e-01,1.267e-11
2.431e-01,2.016e-11
2.473e-01,3.177e-11
2.515e-01,4.959e-11
2.557e-01,7.670e-11
2.599e-01,1.176e-10
2.641e-01,1.787e-10
2.683e-01,2.693e-10
2.725e-01,4.026e-10
2.767e-01,5.971e-10
2.809e-01,8.787e-10
2.851e-01,1.283e-09
2.893e-01,1.861e-09
2.934e-01,2.679e-09
2.976e-01,3.831e-09
3.018e-01,5.441e-09
3.060e-01,7.676e-09
3.102e-01,1.076e-08
3.144e-01,1.499e-08
3.186e-01,2.076e-08
3.228e-01,2.857e-08
3.270e-01,3.909e-08
3.312e-01,5.318e-08
3.354e-01,7.195e-08
3.396e-01,9.681e-08
3.438e-01,1.296e-07
3.480e-01,1.725e-07
3.522e-01,2.285e-07
3.563e-01,3.011e-07
3.605e-01,3.949e-07
3.647e-01,5.154e-07
3.689e-01,6.695e-07
3.731e-01,8.656e-07
3.773e-01,1.114e-06
3.815e-01,1.428e-06
3.857e-01,1.821e-06
3.899e-01,2.313e-06
3.941e-01,2.926e-06
3.983e-01,3.686e-06
4.025e-01,4.624e-06
4.067e-01,5.777e-06
4.109e-01,7.190e-06
4.151e-01,8.914e-06
4.192e-01,1.101e-05
4.234e-01,1.355e-05
4.276e-01,1.661e-05
4.318e-01,2.028e-05
4.360e-01,2.469e-05
4.402e-01,2.994e-05
4.444e-01,3.619e-05
4.486e-01,4.360e-05
4.528e-01,5.235e-05
4.570e-01,6.265e-05
4.612e-01,7.473e-05
4.654e-01,8.886e-05
4.696e-01,1.053e-04
4.738e-01,1.245e-04
4.779e-01,1.467e-04
4.821e-01,1.723e-04
4.863e-01,2.019e-04
4.905e-01,2.358e-04
4.947e-01,2.747e-04
4.989e-01,3.191e-04
5.031e-01,3.697e-04
5.073e-01,4.273e-04
5.115e-01,4.925e-04
5.157e-01,5.663e-04
5.199e-01,6.495e-04
5.241e-01,7.432e-04
5.283e-01,8.484e-04
5.325e-01,9.664e-04
5.367e-01,1.098e-03
5.408e-01,1.246e-03
5.450e-01,1.410e-03
5.492e-01,1.592e-03
5.534e-01,1.795e-03
5.576e-01,2.020e-03
5.618e-01,2.268e-03
5.660e-01,2.543e-03
5.702e-01,2.846e-03
5.744e-01,3.181e-03
5.786e-01,3.549e-03
5.828e-01,3.954e-03
5.870e-01,4.399e-03
5.912e-01,4.888e-03
5.954e-01,5.424e-03
5.996e-01,6.012e-03
6.037e-01,6.656e-03
6.079e-01,7.362e-03
6.121e-01,8.134e-03
6.163e-01,8.979e-03
6.205e-01,9.904e-03
6.247e-01,1.091e-02
6.289e-01,1.202e-02
6.331e-01,1.323e-02
6.373e-01,1.455e-02
6.415e-01,1.600e-02
6.457e-01,1.758e-02
6.499e-01,1.931e-02
6.541e-01,2.120e-02
6.583e-01,2.326e-02
6.624e-01,2.552e-02
6.666e-01,2.799e-02
6.708e-01,3.070e-02
6.750e-01,3.365e-02
6.792e-01,3.688e-02
6.834e-01,4.042e-02
6.876e-01,4.428e-02
6.918e-01,4.851e-02
6.960e-01,5.313e-02
7.002e-01,5.818e-02
7.044e-01,6.370e-02
7.086e-01,6.972e-02
7.128e-01,7.631e-02
7.170e-01,8.350e-02
7.212e-01,9.134e-02
7.253e-01,9.991e-02
7.295e-01,1.093e-01
7.337e-01,1.195e-01
7.379e-01,1.306e-01
7.421e-01,1.427e-01
7.463e-01,1.559e-01
7.505e-01,1.704e-01
7.547e-01,1.862e-01
7.589e-01,2.035e-01
7.631e-01,2.224e-01
7.673e-01,2.431e-01
7.715e-01,2.658e-01
7.757e-01,2.909e-01
7.799e-01,3.186e-01
7.841e-01,3.492e-01
7.882e-01,3.833e-01
7.924e-01,4.214e-01
7.966e-01,4.641e-01
8.008e-01,5.122e-01
8.050e-01,5.666e-01
8.092e-01,6.286e-01
8.134e-01,6.995e-01
8.176e-01,7.811e-01
8.218e-01,8.753e-01
8.260e-01,9.847e-01
8.302e-01,1.112e+00
8.344e-01,1.261e+00
8.386e-01,1.436e+00
8.428e-01,1.642e+00
8.469e-01,1.884e+00
8.511e-01,2.171e+00
8.553e-01,2.509e+00
8.595e-01,2.910e+00
8.637e-01,3.385e+00
8.679e-01,3.949e+00
8.721e-01,4.618e+00
8.763e-01,5.411e+00
8.805e-01,6.351e+00
8.847e-01,7.458e+00
8.889e-01,8.749e+00
8.931e-01,1.023e+01
8.973e-01,1.187e+01
9.015e-01,1.360e+01
9.057e-01,1.530e+01
9.098e-01,1.677e+01
9.140e-01,1.775e+01
9.182e-01,1.797e+01
9.224e-01,1.723e+01
9.266e-01,1.548e+01
9.308e-01,1.288e+01
9.350e-01,9.790e+00
9.392e-01,6.709e+00
9.434e-01,4.078e+00
9.476e-01,2.159e+00
9.518e-01,9.755e-01
9.560e-01,3.670e-01
9.602e-01,1.118e-01
9.644e-01,2.675e-02
9.686e-01,4.857e-03
9.727e-01,6.457e-04
9.769e-01,6.021e-05
9.811e-01,3.647e-06
9.853e-01,1.207e-07
9.895e-01,1.479e-09
9.937e-01,2.493e-12
9.979e-01,6.229e-18
