transmittance,probability_density
2.238e-03,4.105e-07
6.714e-03,4.319e-05
1.119e-02,3.369e-04
1.567e-02,1.213e-03
2.014e-02,2.998e-03
2.462e-02,5.923e-03
2.909e-02,1.010e-02
3.357e-02,1.551e-02
3.805e-02,2.204e-02
4.252e-02,2.952e-02
4.700e-02,3.774e-02
5.147e-02,4.646e-02
5.595e-02,5.547e-02
6.042e-02,6.460e-02
6.490e-02,7.367e-02
6.938e-02,8.257e-02
7.385e-02,9.123e-02
7.833e-02,9.960e-02
8.280e-02,1.077e-01
8.728e-02,1.154e-01
9.176e-02,1.230e-01
9.623e-02,1.303e-01
1.007e-01,1.375e-01
1.052e-01,1.447e-01
1.097e-01,1.519e-01
1.141e-01,1.591e-01
1.186e-01,1.666e-01
1.231e-01,1.743e-01
1.276e-01,1.823e-01
1.320e-01,1.906e-01
1.365e-01,1.993e-01
1.410e-01,2.084e-01
1.455e-01,2.180e-01
1.499e-01,2.280e-01
1.544e-01,2.385e-01
1.589e-01,2.495e-01
1.634e-01,2.608e-01
1.678e-01,2.726e-01
1.723e-01,2.848e-01
1.768e-01,2.974e-01
1.813e-01,3.104e-01
1.857e-01,3.237e-01
1.902e-01,3.373e-01
1.947e-01,3.512e-01
1.992e-01,3.654e-01
2.037e-01,3.798e-01
2.081e-01,3.944e-01
2.126e-01,4.093e-01
2.171e-01,4.244e-01
2.216e-01,4.397e-01
2.260e-01,4.553e-01
2.305e-01,4.710e-01
2.350e-01,4.870e-01
2.395e-01,5.032e-01
2.439e-01,5.197e-01
2.484e-01,5.365e-01
2.529e-01,5.535e-01
2.574e-01,5.708e-01
2.618e-01,5.885e-01
2.663e-01,6.065e-01
2.708e-01,6.249e-01
2.753e-01,6.436e-01
2.797e-01,6.627e-01
2.842e-01,6.823e-01
2.887e-01,7.023e-01
2.932e-01,7.227e-01
2.976e-01,7.436e-01
3.021e-01,7.650e-01
3.066e-01,7.869e-01
3.111e-01,8.093e-01
3.156e-01,8.321e-01
3.200e-01,8.555e-01
3.245e-01,8.794e-01
3.290e-01,9.039e-01
3.335e-01,9.289e-01
3.379e-01,9.544e-01
3.424e-01,9.806e-01
3.469e-01,1.007e+00
3.514e-01,1.035e+00
3.558e-01,1.062e+00
3.603e-01,1.091e+00
3.648e-01,1.120e+00
3.693e-01,1.150e+00
3.737e-01,1.180e+00
3.782e-01,1.211e+00
3.827e-01,1.243e+00
3.872e-01,1.276e+00
3.916e-01,1.309e+00
3.961e-01,1.343e+00
4.006e-01,1.378e+00
4.051e-01,1.414e+00
4.095e-01,1.451e+00
4.140e-01,1.488e+00
4.185e-01,1.527e+00
4.230e-01,1.566e+00
4.274e-01,1.607e+00
4.319e-01,1.648e+00
4.364e-01,1.690e+00
4.409e-01,1.734e+00
4.454e-01,1.778e+00
4.498e-01,1.824e+00
4.543e-01,1.870e+00
4.588e-01,1.918e+00
4.633e-01,1.966e+00
4.677e-01,2.016e+00
4.722e-01,2.066e+00
4.767e-01,2.117e+00
4.812e-01,2.168e+00
4.856e-01,2.221e+00
4.901e-01,2.273e+00
4.946e-01,2.327e+00
4.991e-01,2.380e+00
5.035e-01,2.433e+00
5.080e-01,2.487e+00
5.125e-01,2.540e+00
5.170e-01,2.592e+00
5.214e-01,2.644e+00
5.259e-01,2.695e+00
5.304e-01,2.745e+00
5.349e-01,2.793e+00
5.393e-01,2.840e+00
5.438e-01,2.885e+00
5.483e-01,2.927e+00
5.528e-01,2.967e+00
5.572e-01,3.004e+00
5.617e-01,3.038e+00
5.662e-01,3.068e+00
5.707e-01,3.094e+00
5.752e-01,3.117e+00
5.796e-01,3.135e+00
5.841e-01,3.148e+00
5.886e-01,3.157e+00
5.931e-01,3.160e+00
5.975e-01,3.158e+00
6.020e-01,3.150e+00
6.065e-01,3.137e+00
6.110e-01,3.118e+00
6.154e-01,3.093e+00
6.199e-01,3.062e+00
6.244e-01,3.025e+00
6.289e-01,2.982e+00
6.333e-01,2.933e+00
6.378e-01,2.878e+00
6.423e-01,2.818e+00
6.468e-01,2.752e+00
6.512e-01,2.682e+00
6.557e-01,2.606e+00
6.602e-01,2.526e+00
6.647e-01,2.441e+00
6.691e-01,2.353e+00
6.736e-01,2.261e+00
6.781e-01,2.167e+00
6.826e-01,2.070e+00
6.871e-01,1.972e+00
6.915e-01,1.872e+00
6.960e-01,1.771e+00
7.005e-01,1.670e+00
7.050e-01,1.569e+00
7.094e-01,1.470e+00
7.139e-01,1.371e+00
7.184e-01,1.274e+00
7.229e-01,1.179e+00
7.273e-01,1.087e+00
7.318e-01,9.982e-01
7.363e-01,9.125e-01
7.408e-01,8.305e-01
7.452e-01,7.524e-01
7.497e-01,6.785e-01
7.542e-01,6.088e-01
7.587e-01,5.436e-01
7.631e-01,4.828e-01
7.676e-01,4.265e-01
7.721e-01,3.747e-01
7.766e-01,3.272e-01
7.810e-01,2.841e-01
7.855e-01,2.451e-01
7.900e-01,2.101e-01
7.945e-01,1.789e-01
7.989e-01,1.513e-01
8.034e-01,1.270e-01
8.079e-01,1.058e-01
8.124e-01,8.740e-02
8.169e-01,7.163e-02
8.213e-01,5.820e-02
8.258e-01,4.686e-02
8.303e-01,3.737e-02
8.348e-01,2.950e-02
8.392e-01,2.305e-02
8.437e-01,1.780e-02
8.482e-01,1.359e-02
8.527e-01,1.025e-02
8.571e-01,7.631e-03
8.616e-01,5.601e-03
8.661e-01,4.051e-03
8.706e-01,2.884e-03
8.750e-01,2.018e-03
8.795e-01,1.387e-03
8.840e-01,9.355e-04
8.885e-01,6.177e-04
8.929e-01,3.988e-04
