transmittance,probability_density
2.500e-03,8.142e-10
7.500e-03,4.147e-07
1.250e-02,6.729e-06
1.750e-02,3.926e-05
2.250e-02,1.390e-04
2.750e-02,3.661e-04
3.250e-02,7.922e-04
3.750e-02,1.491e-03
4.250e-02,2.530e-03
4.750e-02,3.962e-03
5.250e-02,5.822e-03
5.750e-02,8.123e-03
6.250e-02,1.086e-02
6.750e-02,1.401e-02
7.250e-02,1.754e-02
7.750e-02,2.140e-02
8.250e-02,2.554e-02
8.750e-02,2.988e-02
9.250e-02,3.438e-02
9.750e-02,3.898e-02
1.025e-01,4.362e-02
1.075e-01,4.826e-02
1.125e-01,5.285e-02
1.175e-01,5.736e-02
1.225e-01,6.176e-02
1.275e-01,6.603e-02
1.325e-01,7.018e-02
1.375e-01,7.418e-02
1.425e-01,7.806e-02
1.475e-01,8.183e-02
1.525e-01,8.549e-02
1.575e-01,8.909e-02
1.625e-01,9.265e-02
1.675e-01,9.620e-02
1.725e-01,9.979e-02
1.775e-01,1.035e-01
1.825e-01,1.072e-01
1.875e-01,1.112e-01
1.925e-01,1.153e-01
1.975e-01,1.197e-01
2.025e-01,1.243e-01
2.075e-01,1.293e-01
2.125e-01,1.346e-01
2.175e-01,1.403e-01
2.225e-01,1.464e-01
2.275e-01,1.529e-01
2.325e-01,1.599e-01
2.375e-01,1.673e-01
2.425e-01,1.752e-01
2.475e-01,1.836e-01
2.525e-01,1.924e-01
2.575e-01,2.017e-01
2.625e-01,2.115e-01
2.675e-01,2.217e-01
2.725e-01,2.323e-01
2.775e-01,2.434e-01
2.825e-01,2.549e-01
2.875e-01,2.668e-01
2.925e-01,2.791e-01
2.975e-01,2.919e-01
3.025e-01,3.049e-01
3.075e-01,3.184e-01
3.125e-01,3.323e-01
3.175e-01,3.465e-01
3.225e-01,3.611e-01
3.275e-01,3.761e-01
3.325e-01,3.916e-01
3.375e-01,4.074e-01
3.425e-01,4.237e-01
3.475e-01,4.405e-01
3.525e-01,4.577e-01
3.575e-01,4.755e-01
3.625e-01,4.939e-01
3.675e-01,5.128e-01
3.725e-01,5.324e-01
3.775e-01,5.527e-01
3.825e-01,5.737e-01
3.875e-01,5.955e-01
3.925e-01,6.180e-01
3.975e-01,6.414e-01
4.025e-01,6.657e-01
4.075e-01,6.909e-01
4.125e-01,7.170e-01
4.175e-01,7.442e-01
4.225e-01,7.724e-01
4.275e-01,8.017e-01
4.325e-01,8.321e-01
4.375e-01,8.637e-01
4.425e-01,8.965e-01
4.475e-01,9.305e-01
4.525e-01,9.659e-01
4.575e-01,1.003e+00
4.625e-01,1.041e+00
4.675e-01,1.080e+00
4.725e-01,1.121e+00
4.775e-01,1.164e+00
4.825e-01,1.208e+00
4.875e-01,1.254e+00
4.925e-01,1.301e+00
4.975e-01,1.351e+00
5.025e-01,1.402e+00
5.075e-01,1.456e+00
5.125e-01,1.511e+00
5.175e-01,1.569e+00
5.225e-01,1.629e+00
5.275e-01,1.691e+00
5.325e-01,1.756e+00
5.375e-01,1.823e+00
5.425e-01,1.892e+00
5.475e-01,1.965e+00
5.525e-01,2.039e+00
5.575e-01,2.117e+00
5.625e-01,2.197e+00
5.675e-01,2.279e+00
5.725e-01,2.364e+00
5.775e-01,2.451e+00
5.825e-01,2.540e+00
5.875e-01,2.631e+00
5.925e-01,2.723e+00
5.975e-01,2.817e+00
6.025e-01,2.911e+00
6.075e-01,3.006e+00
6.125e-01,3.100e+00
6.175e-01,3.193e+00
6.225e-01,3.284e+00
6.275e-01,3.373e+00
6.325e-01,3.459e+00
6.375e-01,3.540e+00
6.425e-01,3.616e+00
6.475e-01,3.686e+00
6.525e-01,3.748e+00
6.575e-01,3.802e+00
6.625e-01,3.847e+00
6.675e-01,3.881e+00
6.725e-01,3.903e+00
6.775e-01,3.914e+00
6.825e-01,3.911e+00
6.875e-01,3.894e+00
6.925e-01,3.863e+00
6.975e-01,3.817e+00
7.025e-01,3.756e+00
7.075e-01,3.679e+00
7.125e-01,3.588e+00
7.175e-01,3.483e+00
7.225e-01,3.363e+00
7.275e-01,3.231e+00
7.325e-01,3.087e+00
7.375e-01,2.933e+00
7.425e-01,2.770e+00
7.475e-01,2.600e+00
7.525e-01,2.424e+00
7.575e-01,2.245e+00
7.625e-01,2.065e+00
7.675e-01,1.885e+00
7.725e-01,1.708e+00
7.775e-01,1.535e+00
7.825e-01,1.368e+00
7.875e-01,1.208e+00
7.925e-01,1.057e+00
7.975e-01,9.166e-01
8.025e-01,7.866e-01
8.075e-01,6.679e-01
8.125e-01,5.608e-01
8.175e-01,4.655e-01
8.225e-01,3.816e-01
8.275e-01,3.088e-01
8.325e-01,2.465e-01
8.375e-01,1.939e-01
8.425e-01,1.502e-01
8.475e-01,1.145e-01
8.525e-01,8.576e-02
8.575e-01,6.306e-02
8.625e-01,4.547e-02
8.675e-01,3.209e-02
8.725e-01,2.214e-02
8.775e-01,1.491e-02
8.825e-01,9.779e-03
8.875e-01,6.232e-03
8.925e-01,3.850e-03
8.975e-01,2.298e-03
9.025e-01,1.322e-03
9.075e-01,7.296e-04
9.125e-01,3.847e-04
9.175e-01,1.928e-04
9.225e-01,9.125e-05
9.275e-01,4.048e-05
9.325e-01,1.668e-05
9.375e-01,6.314e-06
9.425e-01,2.165e-06
9.475e-01,6.602e-07
9.525e-01,1.751e-07
9.575e-01,3.912e-08
9.625e-01,7.061e-09
9.675e-01,9.684e-10
9.725e-01,9.208e-11
9.775e-01,5.241e-12
9.825e-01,1.377e-13
9.875e-01,9.894e-16
9.925e-01,5.007e-19
9.975e-01,3.374e-26
