transmittance,probability_density
4.581e-04,2.432e+00
1.374e-03,7.565e+00
2.291e-03,1.298e+01
3.207e-03,1.818e+01
4.123e-03,2.289e+01
5.040e-03,2.693e+01
5.956e-03,3.021e+01
6.872e-03,3.272e+01
7.789e-03,3.451e+01
8.705e-03,3.565e+01
9.621e-03,3.623e+01
1.054e-02,3.635e+01
1.145e-02,3.608e+01
1.237e-02,3.551e+01
1.329e-02,3.471e+01
1.420e-02,3.373e+01
1.512e-02,3.262e+01
1.604e-02,3.142e+01
1.695e-02,3.016e+01
1.787e-02,2.887e+01
1.878e-02,2.757e+01
1.970e-02,2.627e+01
2.062e-02,2.500e+01
2.153e-02,2.375e+01
2.245e-02,2.254e+01
2.337e-02,2.137e+01
2.428e-02,2.024e+01
2.520e-02,1.916e+01
2.611e-02,1.813e+01
2.703e-02,1.715e+01
2.795e-02,1.621e+01
2.886e-02,1.532e+01
2.978e-02,1.448e+01
3.070e-02,1.368e+01
3.161e-02,1.292e+01
3.253e-02,1.221e+01
3.344e-02,1.153e+01
3.436e-02,1.090e+01
3.528e-02,1.030e+01
3.619e-02,9.728e+00
3.711e-02,9.193e+00
3.803e-02,8.689e+00
3.894e-02,8.214e+00
3.986e-02,7.766e+00
4.078e-02,7.344e+00
4.169e-02,6.947e+00
4.261e-02,6.572e+00
4.352e-02,6.219e+00
4.444e-02,5.886e+00
4.536e-02,5.573e+00
4.627e-02,5.277e+00
4.719e-02,4.999e+00
4.811e-02,4.736e+00
4.902e-02,4.488e+00
4.994e-02,4.255e+00
5.085e-02,4.034e+00
5.177e-02,3.826e+00
5.269e-02,3.630e+00
5.360e-02,3.445e+00
5.452e-02,3.270e+00
5.544e-02,3.105e+00
5.635e-02,2.949e+00
5.727e-02,2.802e+00
5.819e-02,2.662e+00
5.910e-02,2.531e+00
6.002e-02,2.406e+00
6.093e-02,2.288e+00
6.185e-02,2.177e+00
6.277e-02,2.071e+00
6.368e-02,1.971e+00
6.460e-02,1.877e+00
6.552e-02,1.787e+00
6.643e-02,1.703e+00
6.735e-02,1.622e+00
6.826e-02,1.546e+00
6.918e-02,1.474e+00
7.010e-02,1.405e+00
7.101e-02,1.340e+00
7.193e-02,1.279e+00
7.285e-02,1.220e+00
7.376e-02,1.165e+00
7.468e-02,1.112e+00
7.559e-02,1.062e+00
7.651e-02,1.014e+00
7.743e-02,9.688e-01
7.834e-02,9.258e-01
7.926e-02,8.849e-01
8.018e-02,8.460e-01
8.109e-02,8.090e-01
8.201e-02,7.737e-01
8.293e-02,7.402e-01
8.384e-02,7.083e-01
8.476e-02,6.779e-01
8.567e-02,6.490e-01
8.659e-02,6.214e-01
8.751e-02,5.952e-01
8.842e-02,5.701e-01
8.934e-02,5.462e-01
9.026e-02,5.235e-01
9.117e-02,5.018e-01
9.209e-02,4.811e-01
9.300e-02,4.613e-01
9.392e-02,4.424e-01
9.484e-02,4.244e-01
9.575e-02,4.072e-01
9.667e-02,3.908e-01
9.759e-02,3.751e-01
9.850e-02,3.601e-01
9.942e-02,3.458e-01
1.003e-01,3.321e-01
1.013e-01,3.190e-01
1.022e-01,3.065e-01
1.031e-01,2.945e-01
1.040e-01,2.830e-01
1.049e-01,2.720e-01
1.058e-01,2.616e-01
1.067e-01,2.515e-01
1.077e-01,2.419e-01
1.086e-01,2.327e-01
1.095e-01,2.239e-01
1.104e-01,2.154e-01
1.113e-01,2.073e-01
1.122e-01,1.995e-01
1.132e-01,1.921e-01
1.141e-01,1.850e-01
1.150e-01,1.781e-01
1.159e-01,1.716e-01
1.168e-01,1.653e-01
1.177e-01,1.593e-01
1.187e-01,1.535e-01
1.196e-01,1.479e-01
1.205e-01,1.426e-01
1.214e-01,1.374e-01
1.223e-01,1.325e-01
1.232e-01,1.278e-01
1.242e-01,1.233e-01
1.251e-01,1.189e-01
1.260e-01,1.147e-01
1.269e-01,1.107e-01
1.278e-01,1.068e-01
1.287e-01,1.031e-01
1.297e-01,9.953e-02
1.306e-01,9.609e-02
1.315e-01,9.279e-02
1.324e-01,8.961e-02
1.333e-01,8.655e-02
1.342e-01,8.360e-02
1.352e-01,8.077e-02
1.361e-01,7.804e-02
1.370e-01,7.541e-02
1.379e-01,7.289e-02
1.388e-01,7.045e-02
1.397e-01,6.811e-02
1.407e-01,6.585e-02
1.416e-01,6.367e-02
1.425e-01,6.158e-02
1.434e-01,5.956e-02
1.443e-01,5.761e-02
1.452e-01,5.574e-02
1.461e-01,5.393e-02
1.471e-01,5.218e-02
1.480e-01,5.050e-02
1.489e-01,4.888e-02
1.498e-01,4.732e-02
1.507e-01,4.581e-02
1.516e-01,4.435e-02
1.526e-01,4.295e-02
1.535e-01,4.159e-02
1.544e-01,4.029e-02
1.553e-01,3.902e-02
1.562e-01,3.780e-02
1.571e-01,3.663e-02
1.581e-01,3.549e-02
1.590e-01,3.439e-02
1.599e-01,3.333e-02
1.608e-01,3.231e-02
1.617e-01,3.132e-02
1.626e-01,3.037e-02
1.636e-01,2.944e-02
1.645e-01,2.855e-02
1.654e-01,2.769e-02
1.663e-01,2.685e-02
1.672e-01,2.605e-02
1.681e-01,2.527e-02
1.691e-01,2.451e-02
1.700e-01,2.379e-02
1.709e-01,2.308e-02
1.718e-01,2.240e-02
1.727e-01,2.174e-02
1.736e-01,2.110e-02
1.746e-01,2.048e-02
1.755e-01,1.989e-02
1.764e-01,1.931e-02
1.773e-01,1.875e-02
1.782e-01,1.821e-02
1.791e-01,1.768e-02
1.801e-01,1.717e-02
1.810e-01,1.668e-02
1.819e-01,1.620e-02
1.828e-01,1.574e-02
