transmittance,probability_density
1.300e-03,2.867e-01
3.900e-03,1.014e+00
6.500e-03,1.797e+00
9.099e-03,2.610e+00
1.170e-02,3.438e+00
1.430e-02,4.263e+00
1.690e-02,5.066e+00
1.950e-02,5.828e+00
2.210e-02,6.532e+00
2.470e-02,7.166e+00
2.730e-02,7.722e+00
2.990e-02,8.195e+00
3.250e-02,8.586e+00
3.510e-02,8.896e+00
3.770e-02,9.129e+00
4.030e-02,9.290e+00
4.290e-02,9.387e+00
4.550e-02,9.424e+00
4.810e-02,9.409e+00
5.070e-02,9.349e+00
5.330e-02,9.249e+00
5.590e-02,9.115e+00
5.850e-02,8.953e+00
6.110e-02,8.767e+00
6.370e-02,8.563e+00
6.630e-02,8.343e+00
6.890e-02,8.112e+00
7.150e-02,7.872e+00
7.410e-02,7.626e+00
7.670e-02,7.377e+00
7.930e-02,7.126e+00
8.190e-02,6.876e+00
8.450e-02,6.626e+00
8.709e-02,6.380e+00
8.969e-02,6.137e+00
9.229e-02,5.899e+00
9.489e-02,5.666e+00
9.749e-02,5.439e+00
1.001e-01,5.218e+00
1.027e-01,5.004e+00
1.053e-01,4.796e+00
1.079e-01,4.595e+00
1.105e-01,4.401e+00
1.131e-01,4.213e+00
1.157e-01,4.033e+00
1.183e-01,3.859e+00
1.209e-01,3.692e+00
1.235e-01,3.532e+00
1.261e-01,3.378e+00
1.287e-01,3.230e+00
1.313e-01,3.089e+00
1.339e-01,2.953e+00
1.365e-01,2.823e+00
1.391e-01,2.699e+00
1.417e-01,2.580e+00
1.443e-01,2.467e+00
1.469e-01,2.358e+00
1.495e-01,2.254e+00
1.521e-01,2.155e+00
1.547e-01,2.060e+00
1.573e-01,1.970e+00
1.599e-01,1.883e+00
1.625e-01,1.800e+00
1.651e-01,1.721e+00
1.677e-01,1.646e+00
1.703e-01,1.574e+00
1.729e-01,1.506e+00
1.755e-01,1.440e+00
1.781e-01,1.378e+00
1.807e-01,1.318e+00
1.833e-01,1.261e+00
1.859e-01,1.206e+00
1.885e-01,1.155e+00
1.911e-01,1.105e+00
1.937e-01,1.058e+00
1.963e-01,1.013e+00
1.989e-01,9.694e-01
2.015e-01,9.282e-01
2.041e-01,8.889e-01
2.067e-01,8.513e-01
2.093e-01,8.155e-01
2.119e-01,7.812e-01
2.145e-01,7.485e-01
2.171e-01,7.173e-01
2.197e-01,6.874e-01
2.223e-01,6.589e-01
2.249e-01,6.316e-01
2.275e-01,6.056e-01
2.301e-01,5.807e-01
2.327e-01,5.569e-01
2.353e-01,5.341e-01
2.379e-01,5.124e-01
2.405e-01,4.916e-01
2.431e-01,4.717e-01
2.457e-01,4.527e-01
2.483e-01,4.345e-01
2.509e-01,4.171e-01
2.535e-01,4.004e-01
2.561e-01,3.845e-01
2.587e-01,3.692e-01
2.613e-01,3.546e-01
2.639e-01,3.407e-01
2.665e-01,3.273e-01
2.691e-01,3.145e-01
2.717e-01,3.022e-01
2.743e-01,2.904e-01
2.769e-01,2.792e-01
2.795e-01,2.684e-01
2.821e-01,2.581e-01
2.847e-01,2.482e-01
2.873e-01,2.387e-01
2.899e-01,2.296e-01
2.925e-01,2.208e-01
2.951e-01,2.125e-01
2.977e-01,2.045e-01
3.003e-01,1.968e-01
3.029e-01,1.894e-01
3.055e-01,1.823e-01
3.081e-01,1.755e-01
3.107e-01,1.690e-01
3.133e-01,1.628e-01
3.159e-01,1.568e-01
3.185e-01,1.510e-01
3.211e-01,1.455e-01
3.237e-01,1.401e-01
3.263e-01,1.350e-01
3.289e-01,1.301e-01
3.315e-01,1.254e-01
3.341e-01,1.209e-01
3.367e-01,1.166e-01
3.393e-01,1.124e-01
3.419e-01,1.084e-01
3.445e-01,1.045e-01
3.471e-01,1.008e-01
3.497e-01,9.725e-02
3.523e-01,9.382e-02
3.549e-01,9.053e-02
3.575e-01,8.736e-02
3.601e-01,8.431e-02
3.627e-01,8.137e-02
3.653e-01,7.855e-02
3.679e-01,7.583e-02
3.705e-01,7.322e-02
3.731e-01,7.070e-02
3.757e-01,6.828e-02
3.783e-01,6.595e-02
3.809e-01,6.370e-02
3.835e-01,6.154e-02
3.861e-01,5.946e-02
3.887e-01,5.745e-02
3.913e-01,5.552e-02
3.939e-01,5.366e-02
3.965e-01,5.186e-02
3.991e-01,5.014e-02
4.017e-01,4.847e-02
4.043e-01,4.686e-02
4.069e-01,4.532e-02
4.095e-01,4.382e-02
4.121e-01,4.239e-02
4.147e-01,4.100e-02
4.173e-01,3.966e-02
4.199e-01,3.837e-02
4.225e-01,3.713e-02
4.251e-01,3.592e-02
4.277e-01,3.477e-02
4.303e-01,3.365e-02
4.329e-01,3.257e-02
4.355e-01,3.153e-02
4.381e-01,3.052e-02
4.407e-01,2.955e-02
4.433e-01,2.862e-02
4.459e-01,2.771e-02
4.485e-01,2.684e-02
4.511e-01,2.600e-02
4.537e-01,2.518e-02
4.563e-01,2.439e-02
4.589e-01,2.363e-02
4.615e-01,2.290e-02
4.641e-01,2.219e-02
4.667e-01,2.150e-02
4.693e-01,2.084e-02
4.719e-01,2.020e-02
4.745e-01,1.958e-02
4.771e-01,1.898e-02
4.797e-01,1.841e-02
4.823e-01,1.785e-02
4.849e-01,1.731e-02
4.875e-01,1.678e-02
4.901e-01,1.628e-02
4.927e-01,1.579e-02
4.953e-01,1.532e-02
4.979e-01,1.486e-02
5.005e-01,1.441e-02
5.031e-01,1.399e-02
5.057e-01,1.357e-02
5.083e-01,1.317e-02
5.109e-01,1.278e-02
5.135e-01,1.241e-02
5.161e-01,1.204e-02
5.187e-01,1.169e-02
