transmittance,probability_density
1.118e-03,3.048e-01
3.355e-03,1.091e+00
5.592e-03,2.054e+00
7.829e-03,3.115e+00
1.007e-02,4.230e+00
1.230e-02,5.357e+00
1.454e-02,6.454e+00
1.678e-02,7.486e+00
1.901e-02,8.424e+00
2.125e-02,9.250e+00
2.349e-02,9.956e+00
2.572e-02,1.054e+01
2.796e-02,1.100e+01
3.020e-02,1.134e+01
3.243e-02,1.158e+01
3.467e-02,1.172e+01
3.691e-02,1.177e+01
3.914e-02,1.175e+01
4.138e-02,1.166e+01
4.362e-02,1.152e+01
4.586e-02,1.132e+01
4.809e-02,1.109e+01
5.033e-02,1.083e+01
5.257e-02,1.055e+01
5.480e-02,1.024e+01
5.704e-02,9.925e+00
5.928e-02,9.597e+00
6.151e-02,9.264e+00
6.375e-02,8.928e+00
6.599e-02,8.592e+00
6.822e-02,8.259e+00
7.046e-02,7.929e+00
7.270e-02,7.605e+00
7.493e-02,7.288e+00
7.717e-02,6.979e+00
7.941e-02,6.678e+00
8.165e-02,6.387e+00
8.388e-02,6.105e+00
8.612e-02,5.832e+00
8.836e-02,5.570e+00
9.059e-02,5.317e+00
9.283e-02,5.074e+00
9.507e-02,4.841e+00
9.730e-02,4.617e+00
9.954e-02,4.403e+00
1.018e-01,4.199e+00
1.040e-01,4.003e+00
1.063e-01,3.816e+00
1.085e-01,3.637e+00
1.107e-01,3.467e+00
1.130e-01,3.304e+00
1.152e-01,3.149e+00
1.174e-01,3.001e+00
1.197e-01,2.860e+00
1.219e-01,2.726e+00
1.241e-01,2.598e+00
1.264e-01,2.477e+00
1.286e-01,2.361e+00
1.309e-01,2.250e+00
1.331e-01,2.145e+00
1.353e-01,2.046e+00
1.376e-01,1.951e+00
1.398e-01,1.860e+00
1.420e-01,1.774e+00
1.443e-01,1.692e+00
1.465e-01,1.614e+00
1.488e-01,1.540e+00
1.510e-01,1.469e+00
1.532e-01,1.402e+00
1.555e-01,1.338e+00
1.577e-01,1.278e+00
1.599e-01,1.220e+00
1.622e-01,1.165e+00
1.644e-01,1.112e+00
1.666e-01,1.062e+00
1.689e-01,1.015e+00
1.711e-01,9.693e-01
1.734e-01,9.262e-01
1.756e-01,8.852e-01
1.778e-01,8.461e-01
1.801e-01,8.088e-01
1.823e-01,7.733e-01
1.845e-01,7.395e-01
1.868e-01,7.073e-01
1.890e-01,6.766e-01
1.913e-01,6.473e-01
1.935e-01,6.194e-01
1.957e-01,5.928e-01
1.980e-01,5.674e-01
2.002e-01,5.432e-01
2.024e-01,5.201e-01
2.047e-01,4.980e-01
2.069e-01,4.770e-01
2.091e-01,4.569e-01
2.114e-01,4.378e-01
2.136e-01,4.195e-01
2.159e-01,4.020e-01
2.181e-01,3.854e-01
2.203e-01,3.694e-01
2.226e-01,3.542e-01
2.248e-01,3.397e-01
2.270e-01,3.258e-01
2.293e-01,3.125e-01
2.315e-01,2.999e-01
2.338e-01,2.877e-01
2.360e-01,2.761e-01
2.382e-01,2.651e-01
2.405e-01,2.545e-01
2.427e-01,2.443e-01
2.449e-01,2.346e-01
2.472e-01,2.253e-01
2.494e-01,2.164e-01
2.516e-01,2.079e-01
2.539e-01,1.998e-01
2.561e-01,1.920e-01
2.584e-01,1.845e-01
2.606e-01,1.774e-01
2.628e-01,1.705e-01
2.651e-01,1.640e-01
2.673e-01,1.577e-01
2.695e-01,1.517e-01
2.718e-01,1.459e-01
2.740e-01,1.404e-01
2.763e-01,1.350e-01
2.785e-01,1.300e-01
2.807e-01,1.251e-01
2.830e-01,1.204e-01
2.852e-01,1.159e-01
2.874e-01,1.116e-01
2.897e-01,1.075e-01
2.919e-01,1.035e-01
2.941e-01,9.970e-02
2.964e-01,9.604e-02
2.986e-01,9.253e-02
3.009e-01,8.916e-02
3.031e-01,8.593e-02
3.053e-01,8.282e-02
3.076e-01,7.983e-02
3.098e-01,7.697e-02
3.120e-01,7.421e-02
3.143e-01,7.156e-02
3.165e-01,6.901e-02
3.188e-01,6.657e-02
3.210e-01,6.421e-02
3.232e-01,6.195e-02
3.255e-01,5.978e-02
3.277e-01,5.769e-02
3.299e-01,5.567e-02
3.322e-01,5.374e-02
3.344e-01,5.187e-02
3.366e-01,5.008e-02
3.389e-01,4.836e-02
3.411e-01,4.670e-02
3.434e-01,4.510e-02
3.456e-01,4.356e-02
3.478e-01,4.208e-02
3.501e-01,4.065e-02
3.523e-01,3.928e-02
3.545e-01,3.796e-02
3.568e-01,3.668e-02
3.590e-01,3.545e-02
3.613e-01,3.427e-02
3.635e-01,3.313e-02
3.657e-01,3.203e-02
3.680e-01,3.097e-02
3.702e-01,2.995e-02
3.724e-01,2.896e-02
3.747e-01,2.802e-02
3.769e-01,2.710e-02
3.791e-01,2.622e-02
3.814e-01,2.537e-02
3.836e-01,2.454e-02
3.859e-01,2.375e-02
3.881e-01,2.299e-02
3.903e-01,2.225e-02
3.926e-01,2.154e-02
3.948e-01,2.085e-02
3.970e-01,2.019e-02
3.993e-01,1.955e-02
4.015e-01,1.893e-02
4.038e-01,1.833e-02
4.060e-01,1.775e-02
4.082e-01,1.720e-02
4.105e-01,1.666e-02
4.127e-01,1.614e-02
4.149e-01,1.564e-02
4.172e-01,1.515e-02
4.194e-01,1.469e-02
4.216e-01,1.423e-02
4.239e-01,1.379e-02
4.261e-01,1.337e-02
4.284e-01,1.296e-02
4.306e-01,1.257e-02
4.328e-01,1.219e-02
4.351e-01,1.182e-02
4.373e-01,1.146e-02
4.395e-01,1.111e-02
4.418e-01,1.078e-02
4.440e-01,1.046e-02
4.463e-01,1.014e-02
