transmittance,probability_density
1.971e-03,4.507e-02
5.914e-03,1.703e-01
9.857e-03,3.388e-01
1.380e-02,5.316e-01
1.774e-02,7.338e-01
2.169e-02,9.418e-01
2.563e-02,1.155e+00
2.957e-02,1.375e+00
3.352e-02,1.599e+00
3.746e-02,1.827e+00
4.140e-02,2.058e+00
4.534e-02,2.288e+00
4.929e-02,2.516e+00
5.323e-02,2.738e+00
5.717e-02,2.954e+00
6.112e-02,3.160e+00
6.506e-02,3.355e+00
6.900e-02,3.538e+00
7.294e-02,3.706e+00
7.689e-02,3.860e+00
8.083e-02,3.997e+00
8.477e-02,4.119e+00
8.872e-02,4.225e+00
9.266e-02,4.314e+00
9.660e-02,4.388e+00
1.005e-01,4.446e+00
1.045e-01,4.489e+00
1.084e-01,4.519e+00
1.124e-01,4.535e+00
1.163e-01,4.539e+00
1.203e-01,4.531e+00
1.242e-01,4.512e+00
1.281e-01,4.483e+00
1.321e-01,4.445e+00
1.360e-01,4.399e+00
1.400e-01,4.346e+00
1.439e-01,4.286e+00
1.479e-01,4.220e+00
1.518e-01,4.149e+00
1.557e-01,4.074e+00
1.597e-01,3.995e+00
1.636e-01,3.913e+00
1.676e-01,3.829e+00
1.715e-01,3.742e+00
1.755e-01,3.654e+00
1.794e-01,3.564e+00
1.833e-01,3.474e+00
1.873e-01,3.383e+00
1.912e-01,3.293e+00
1.952e-01,3.202e+00
1.991e-01,3.112e+00
2.031e-01,3.022e+00
2.070e-01,2.934e+00
2.109e-01,2.846e+00
2.149e-01,2.760e+00
2.188e-01,2.675e+00
2.228e-01,2.591e+00
2.267e-01,2.509e+00
2.307e-01,2.429e+00
2.346e-01,2.350e+00
2.385e-01,2.273e+00
2.425e-01,2.198e+00
2.464e-01,2.125e+00
2.504e-01,2.053e+00
2.543e-01,1.984e+00
2.583e-01,1.916e+00
2.622e-01,1.851e+00
2.661e-01,1.787e+00
2.701e-01,1.725e+00
2.740e-01,1.665e+00
2.780e-01,1.606e+00
2.819e-01,1.550e+00
2.859e-01,1.495e+00
2.898e-01,1.442e+00
2.937e-01,1.391e+00
2.977e-01,1.341e+00
3.016e-01,1.293e+00
3.056e-01,1.247e+00
3.095e-01,1.202e+00
3.135e-01,1.158e+00
3.174e-01,1.116e+00
3.214e-01,1.076e+00
3.253e-01,1.037e+00
3.292e-01,9.994e-01
3.332e-01,9.631e-01
3.371e-01,9.280e-01
3.411e-01,8.942e-01
3.450e-01,8.616e-01
3.490e-01,8.302e-01
3.529e-01,7.999e-01
3.568e-01,7.707e-01
3.608e-01,7.426e-01
3.647e-01,7.154e-01
3.687e-01,6.893e-01
3.726e-01,6.641e-01
3.766e-01,6.399e-01
3.805e-01,6.165e-01
3.844e-01,5.940e-01
3.884e-01,5.724e-01
3.923e-01,5.515e-01
3.963e-01,5.314e-01
4.002e-01,5.120e-01
4.042e-01,4.934e-01
4.081e-01,4.754e-01
4.120e-01,4.582e-01
4.160e-01,4.415e-01
4.199e-01,4.255e-01
4.239e-01,4.101e-01
4.278e-01,3.952e-01
4.318e-01,3.809e-01
4.357e-01,3.672e-01
4.396e-01,3.539e-01
4.436e-01,3.412e-01
4.475e-01,3.289e-01
4.515e-01,3.171e-01
4.554e-01,3.057e-01
4.594e-01,2.947e-01
4.633e-01,2.842e-01
4.672e-01,2.740e-01
4.712e-01,2.642e-01
4.751e-01,2.548e-01
4.791e-01,2.457e-01
4.830e-01,2.370e-01
4.870e-01,2.286e-01
4.909e-01,2.205e-01
4.948e-01,2.127e-01
4.988e-01,2.052e-01
5.027e-01,1.979e-01
5.067e-01,1.910e-01
5.106e-01,1.843e-01
5.146e-01,1.778e-01
5.185e-01,1.716e-01
5.224e-01,1.656e-01
5.264e-01,1.598e-01
5.303e-01,1.542e-01
5.343e-01,1.489e-01
5.382e-01,1.437e-01
5.422e-01,1.387e-01
5.461e-01,1.339e-01
5.500e-01,1.293e-01
5.540e-01,1.248e-01
5.579e-01,1.206e-01
5.619e-01,1.164e-01
5.658e-01,1.124e-01
5.698e-01,1.086e-01
5.737e-01,1.049e-01
5.776e-01,1.013e-01
5.816e-01,9.786e-02
5.855e-01,9.454e-02
5.895e-01,9.134e-02
5.934e-01,8.825e-02
5.974e-01,8.527e-02
6.013e-01,8.240e-02
6.052e-01,7.963e-02
6.092e-01,7.696e-02
6.131e-01,7.438e-02
6.171e-01,7.190e-02
6.210e-01,6.950e-02
6.250e-01,6.719e-02
6.289e-01,6.496e-02
6.328e-01,6.281e-02
6.368e-01,6.073e-02
6.407e-01,5.872e-02
6.447e-01,5.679e-02
6.486e-01,5.492e-02
6.526e-01,5.312e-02
6.565e-01,5.138e-02
6.604e-01,4.970e-02
6.644e-01,4.808e-02
6.683e-01,4.651e-02
6.723e-01,4.500e-02
6.762e-01,4.354e-02
6.802e-01,4.214e-02
6.841e-01,4.078e-02
6.880e-01,3.946e-02
6.920e-01,3.819e-02
6.959e-01,3.697e-02
6.999e-01,3.578e-02
7.038e-01,3.464e-02
7.078e-01,3.353e-02
7.117e-01,3.247e-02
7.156e-01,3.144e-02
7.196e-01,3.044e-02
7.235e-01,2.948e-02
7.275e-01,2.855e-02
7.314e-01,2.765e-02
7.354e-01,2.678e-02
7.393e-01,2.594e-02
7.432e-01,2.512e-02
7.472e-01,2.434e-02
7.511e-01,2.358e-02
7.551e-01,2.284e-02
7.590e-01,2.213e-02
7.630e-01,2.145e-02
7.669e-01,2.078e-02
7.708e-01,2.014e-02
7.748e-01,1.952e-02
7.787e-01,1.892e-02
7.827e-01,1.834e-02
7.866e-01,1.778e-02
