transmittance,probability_density
2.500e-03,9.672e-03
7.500e-03,3.483e-02
1.250e-02,7.552e-02
1.750e-02,1.216e-01
2.250e-02,1.732e-01
2.750e-02,2.302e-01
3.250e-02,2.919e-01
3.750e-02,3.575e-01
4.250e-02,4.267e-01
4.750e-02,4.994e-01
5.250e-02,5.754e-01
5.750e-02,6.546e-01
6.250e-02,7.368e-01
6.750e-02,8.221e-01
7.250e-02,9.101e-01
7.750e-02,1.001e+00
8.250e-02,1.094e+00
8.750e-02,1.189e+00
9.250e-02,1.285e+00
9.750e-02,1.383e+00
1.025e-01,1.482e+00
1.075e-01,1.581e+00
1.125e-01,1.679e+00
1.175e-01,1.777e+00
1.225e-01,1.874e+00
1.275e-01,1.968e+00
1.325e-01,2.061e+00
1.375e-01,2.150e+00
1.425e-01,2.236e+00
1.475e-01,2.318e+00
1.525e-01,2.396e+00
1.575e-01,2.470e+00
1.625e-01,2.538e+00
1.675e-01,2.601e+00
1.725e-01,2.660e+00
1.775e-01,2.712e+00
1.825e-01,2.759e+00
1.875e-01,2.801e+00
1.925e-01,2.836e+00
1.975e-01,2.867e+00
2.025e-01,2.891e+00
2.075e-01,2.911e+00
2.125e-01,2.924e+00
2.175e-01,2.933e+00
2.225e-01,2.937e+00
2.275e-01,2.936e+00
2.325e-01,2.930e+00
2.375e-01,2.920e+00
2.425e-01,2.906e+00
2.475e-01,2.888e+00
2.525e-01,2.866e+00
2.575e-01,2.841e+00
2.625e-01,2.813e+00
2.675e-01,2.781e+00
2.725e-01,2.747e+00
2.775e-01,2.711e+00
2.825e-01,2.672e+00
2.875e-01,2.632e+00
2.925e-01,2.589e+00
2.975e-01,2.545e+00
3.025e-01,2.500e+00
3.075e-01,2.453e+00
3.125e-01,2.405e+00
3.175e-01,2.357e+00
3.225e-01,2.308e+00
3.275e-01,2.258e+00
3.325e-01,2.208e+00
3.375e-01,2.158e+00
3.425e-01,2.107e+00
3.475e-01,2.057e+00
3.525e-01,2.006e+00
3.575e-01,1.956e+00
3.625e-01,1.906e+00
3.675e-01,1.857e+00
3.725e-01,1.808e+00
3.775e-01,1.759e+00
3.825e-01,1.711e+00
3.875e-01,1.664e+00
3.925e-01,1.617e+00
3.975e-01,1.571e+00
4.025e-01,1.525e+00
4.075e-01,1.481e+00
4.125e-01,1.437e+00
4.175e-01,1.394e+00
4.225e-01,1.352e+00
4.275e-01,1.311e+00
4.325e-01,1.271e+00
4.375e-01,1.232e+00
4.425e-01,1.193e+00
4.475e-01,1.156e+00
4.525e-01,1.119e+00
4.575e-01,1.084e+00
4.625e-01,1.049e+00
4.675e-01,1.015e+00
4.725e-01,9.820e-01
4.775e-01,9.499e-01
4.825e-01,9.187e-01
4.875e-01,8.884e-01
4.925e-01,8.589e-01
4.975e-01,8.302e-01
5.025e-01,8.024e-01
5.075e-01,7.754e-01
5.125e-01,7.493e-01
5.175e-01,7.239e-01
5.225e-01,6.992e-01
5.275e-01,6.753e-01
5.325e-01,6.522e-01
5.375e-01,6.298e-01
5.425e-01,6.081e-01
5.475e-01,5.871e-01
5.525e-01,5.667e-01
5.575e-01,5.471e-01
5.625e-01,5.280e-01
5.675e-01,5.096e-01
5.725e-01,4.918e-01
5.775e-01,4.745e-01
5.825e-01,4.579e-01
5.875e-01,4.418e-01
5.925e-01,4.262e-01
5.975e-01,4.112e-01
6.025e-01,3.966e-01
6.075e-01,3.826e-01
6.125e-01,3.690e-01
6.175e-01,3.559e-01
6.225e-01,3.433e-01
6.275e-01,3.311e-01
6.325e-01,3.193e-01
6.375e-01,3.079e-01
6.425e-01,2.970e-01
6.475e-01,2.864e-01
6.525e-01,2.761e-01
6.575e-01,2.663e-01
6.625e-01,2.568e-01
6.675e-01,2.476e-01
6.725e-01,2.387e-01
6.775e-01,2.302e-01
6.825e-01,2.219e-01
6.875e-01,2.140e-01
6.925e-01,2.063e-01
6.975e-01,1.989e-01
7.025e-01,1.918e-01
7.075e-01,1.849e-01
7.125e-01,1.783e-01
7.175e-01,1.719e-01
7.225e-01,1.657e-01
7.275e-01,1.598e-01
7.325e-01,1.541e-01
7.375e-01,1.486e-01
7.425e-01,1.432e-01
7.475e-01,1.381e-01
7.525e-01,1.332e-01
7.575e-01,1.284e-01
7.625e-01,1.238e-01
7.675e-01,1.194e-01
7.725e-01,1.151e-01
7.775e-01,1.110e-01
7.825e-01,1.070e-01
7.875e-01,1.032e-01
7.925e-01,9.954e-02
7.975e-01,9.599e-02
8.025e-01,9.257e-02
8.075e-01,8.928e-02
8.125e-01,8.610e-02
8.175e-01,8.304e-02
8.225e-01,8.009e-02
8.275e-01,7.724e-02
8.325e-01,7.450e-02
8.375e-01,7.186e-02
8.425e-01,6.931e-02
8.475e-01,6.686e-02
8.525e-01,6.449e-02
8.575e-01,6.221e-02
8.625e-01,6.001e-02
8.675e-01,5.789e-02
8.725e-01,5.585e-02
8.775e-01,5.388e-02
8.825e-01,5.199e-02
8.875e-01,5.016e-02
8.925e-01,4.840e-02
8.975e-01,4.670e-02
9.025e-01,4.506e-02
9.075e-01,4.348e-02
9.125e-01,4.196e-02
9.175e-01,4.049e-02
9.225e-01,3.908e-02
9.275e-01,3.771e-02
9.325e-01,3.640e-02
9.375e-01,3.513e-02
9.425e-01,3.391e-02
9.475e-01,3.273e-02
9.525e-01,3.159e-02
9.575e-01,3.050e-02
9.625e-01,2.944e-02
9.675e-01,2.842e-02
9.725e-01,2.744e-02
9.775e-01,2.649e-02
9.825e-01,2.558e-02
9.875e-01,2.469e-02
9.925e-01,2.384e-02
9.975e-01,2.302e-02
