transmittance,probability_density
2.183e-03,2.218e-02
6.549e-03,7.866e-02
1.091e-02,1.523e-01
1.528e-02,2.314e-01
1.965e-02,3.229e-01
2.401e-02,4.245e-01
2.838e-02,5.337e-01
3.274e-02,6.490e-01
3.711e-02,7.696e-01
4.148e-02,8.947e-01
4.584e-02,1.024e+00
5.021e-02,1.157e+00
5.457e-02,1.292e+00
5.894e-02,1.430e+00
6.331e-02,1.569e+00
6.767e-02,1.709e+00
7.204e-02,1.848e+00
7.640e-02,1.987e+00
8.077e-02,2.123e+00
8.514e-02,2.257e+00
8.950e-02,2.387e+00
9.387e-02,2.512e+00
9.823e-02,2.632e+00
1.026e-01,2.746e+00
1.070e-01,2.853e+00
1.113e-01,2.953e+00
1.157e-01,3.046e+00
1.201e-01,3.131e+00
1.244e-01,3.208e+00
1.288e-01,3.276e+00
1.332e-01,3.337e+00
1.375e-01,3.389e+00
1.419e-01,3.433e+00
1.463e-01,3.469e+00
1.506e-01,3.497e+00
1.550e-01,3.517e+00
1.594e-01,3.530e+00
1.637e-01,3.536e+00
1.681e-01,3.536e+00
1.725e-01,3.529e+00
1.768e-01,3.516e+00
1.812e-01,3.497e+00
1.856e-01,3.473e+00
1.899e-01,3.445e+00
1.943e-01,3.412e+00
1.986e-01,3.375e+00
2.030e-01,3.334e+00
2.074e-01,3.290e+00
2.117e-01,3.242e+00
2.161e-01,3.192e+00
2.205e-01,3.140e+00
2.248e-01,3.086e+00
2.292e-01,3.029e+00
2.336e-01,2.972e+00
2.379e-01,2.912e+00
2.423e-01,2.852e+00
2.467e-01,2.791e+00
2.510e-01,2.730e+00
2.554e-01,2.668e+00
2.598e-01,2.606e+00
2.641e-01,2.543e+00
2.685e-01,2.481e+00
2.729e-01,2.419e+00
2.772e-01,2.357e+00
2.816e-01,2.296e+00
2.860e-01,2.235e+00
2.903e-01,2.175e+00
2.947e-01,2.116e+00
2.991e-01,2.057e+00
3.034e-01,1.999e+00
3.078e-01,1.942e+00
3.122e-01,1.886e+00
3.165e-01,1.832e+00
3.209e-01,1.778e+00
3.253e-01,1.725e+00
3.296e-01,1.673e+00
3.340e-01,1.623e+00
3.384e-01,1.573e+00
3.427e-01,1.525e+00
3.471e-01,1.478e+00
3.515e-01,1.431e+00
3.558e-01,1.387e+00
3.602e-01,1.343e+00
3.646e-01,1.300e+00
3.689e-01,1.259e+00
3.733e-01,1.218e+00
3.777e-01,1.179e+00
3.820e-01,1.141e+00
3.864e-01,1.104e+00
3.907e-01,1.068e+00
3.951e-01,1.033e+00
3.995e-01,9.986e-01
4.038e-01,9.656e-01
4.082e-01,9.336e-01
4.126e-01,9.026e-01
4.169e-01,8.725e-01
4.213e-01,8.434e-01
4.257e-01,8.151e-01
4.300e-01,7.878e-01
4.344e-01,7.613e-01
4.388e-01,7.356e-01
4.431e-01,7.108e-01
4.475e-01,6.867e-01
4.519e-01,6.635e-01
4.562e-01,6.410e-01
4.606e-01,6.192e-01
4.650e-01,5.981e-01
4.693e-01,5.778e-01
4.737e-01,5.581e-01
4.781e-01,5.390e-01
4.824e-01,5.206e-01
4.868e-01,5.028e-01
4.912e-01,4.856e-01
4.955e-01,4.690e-01
4.999e-01,4.530e-01
5.043e-01,4.375e-01
5.086e-01,4.225e-01
5.130e-01,4.080e-01
5.174e-01,3.940e-01
5.217e-01,3.805e-01
5.261e-01,3.675e-01
5.305e-01,3.549e-01
5.348e-01,3.427e-01
5.392e-01,3.310e-01
5.436e-01,3.196e-01
5.479e-01,3.087e-01
5.523e-01,2.981e-01
5.567e-01,2.879e-01
5.610e-01,2.780e-01
5.654e-01,2.685e-01
5.697e-01,2.593e-01
5.741e-01,2.505e-01
5.785e-01,2.419e-01
5.828e-01,2.337e-01
5.872e-01,2.257e-01
5.916e-01,2.180e-01
5.959e-01,2.106e-01
6.003e-01,2.034e-01
6.047e-01,1.965e-01
6.090e-01,1.898e-01
6.134e-01,1.833e-01
6.178e-01,1.771e-01
6.221e-01,1.711e-01
6.265e-01,1.653e-01
6.309e-01,1.597e-01
6.352e-01,1.543e-01
6.396e-01,1.491e-01
6.440e-01,1.441e-01
6.483e-01,1.392e-01
6.527e-01,1.345e-01
6.571e-01,1.300e-01
6.614e-01,1.256e-01
6.658e-01,1.214e-01
6.702e-01,1.173e-01
6.745e-01,1.134e-01
6.789e-01,1.096e-01
6.833e-01,1.059e-01
6.876e-01,1.024e-01
6.920e-01,9.899e-02
6.964e-01,9.569e-02
7.007e-01,9.251e-02
7.051e-01,8.943e-02
7.095e-01,8.646e-02
7.138e-01,8.360e-02
7.182e-01,8.083e-02
7.226e-01,7.816e-02
7.269e-01,7.558e-02
7.313e-01,7.309e-02
7.357e-01,7.068e-02
7.400e-01,6.835e-02
7.444e-01,6.611e-02
7.488e-01,6.394e-02
7.531e-01,6.185e-02
7.575e-01,5.982e-02
7.618e-01,5.787e-02
7.662e-01,5.598e-02
7.706e-01,5.416e-02
7.749e-01,5.240e-02
7.793e-01,5.070e-02
7.837e-01,4.905e-02
7.880e-01,4.746e-02
7.924e-01,4.593e-02
7.968e-01,4.445e-02
8.011e-01,4.301e-02
8.055e-01,4.163e-02
8.099e-01,4.029e-02
8.142e-01,3.900e-02
8.186e-01,3.775e-02
8.230e-01,3.654e-02
8.273e-01,3.537e-02
8.317e-01,3.424e-02
8.361e-01,3.315e-02
8.404e-01,3.210e-02
8.448e-01,3.108e-02
8.492e-01,3.009e-02
8.535e-01,2.914e-02
8.579e-01,2.822e-02
8.623e-01,2.732e-02
8.666e-01,2.646e-02
8.710e-01,2.563e-02
