transmittance,probability_density
2.500e-03,1.606e-12
7.500e-03,5.919e-04
1.250e-02,1.290e-03
1.750e-02,1.277e-03
2.250e-02,2.302e-03
2.750e-02,3.448e-03
3.250e-02,5.166e-03
3.750e-02,6.867e-03
4.250e-02,8.452e-03
4.750e-02,1.029e-02
5.250e-02,1.259e-02
5.750e-02,1.531e-02
6.250e-02,1.841e-02
6.750e-02,2.191e-02
7.250e-02,2.588e-02
7.750e-02,3.034e-02
8.250e-02,3.527e-02
8.750e-02,4.058e-02
9.250e-02,4.621e-02
9.750e-02,5.206e-02
1.025e-01,5.810e-02
1.075e-01,6.432e-02
1.125e-01,7.072e-02
1.175e-01,7.735e-02
1.225e-01,8.426e-02
1.275e-01,9.151e-02
1.325e-01,9.916e-02
1.375e-01,1.072e-01
1.425e-01,1.158e-01
1.475e-01,1.249e-01
1.525e-01,1.346e-01
1.575e-01,1.448e-01
1.625e-01,1.556e-01
1.675e-01,1.670e-01
1.725e-01,1.791e-01
1.775e-01,1.917e-01
1.825e-01,2.049e-01
1.875e-01,2.188e-01
1.925e-01,2.332e-01
1.975e-01,2.483e-01
2.025e-01,2.640e-01
2.075e-01,2.803e-01
2.125e-01,2.972e-01
2.175e-01,3.147e-01
2.225e-01,3.329e-01
2.275e-01,3.516e-01
2.325e-01,3.710e-01
2.375e-01,3.909e-01
2.425e-01,4.115e-01
2.475e-01,4.327e-01
2.525e-01,4.544e-01
2.575e-01,4.768e-01
2.625e-01,4.999e-01
2.675e-01,5.235e-01
2.725e-01,5.477e-01
2.775e-01,5.726e-01
2.825e-01,5.982e-01
2.875e-01,6.244e-01
2.925e-01,6.512e-01
2.975e-01,6.787e-01
3.025e-01,7.069e-01
3.075e-01,7.357e-01
3.125e-01,7.653e-01
3.175e-01,7.955e-01
3.225e-01,8.264e-01
3.275e-01,8.580e-01
3.325e-01,8.903e-01
3.375e-01,9.232e-01
3.425e-01,9.568e-01
3.475e-01,9.911e-01
3.525e-01,1.026e+00
3.575e-01,1.062e+00
3.625e-01,1.098e+00
3.675e-01,1.134e+00
3.725e-01,1.171e+00
3.775e-01,1.209e+00
3.825e-01,1.247e+00
3.875e-01,1.286e+00
3.925e-01,1.325e+00
3.975e-01,1.364e+00
4.025e-01,1.403e+00
4.075e-01,1.442e+00
4.125e-01,1.482e+00
4.175e-01,1.521e+00
4.225e-01,1.561e+00
4.275e-01,1.600e+00
4.325e-01,1.639e+00
4.375e-01,1.677e+00
4.425e-01,1.716e+00
4.475e-01,1.753e+00
4.525e-01,1.790e+00
4.575e-01,1.826e+00
4.625e-01,1.861e+00
4.675e-01,1.896e+00
4.725e-01,1.929e+00
4.775e-01,1.961e+00
4.825e-01,1.992e+00
4.875e-01,2.021e+00
4.925e-01,2.050e+00
4.975e-01,2.076e+00
5.025e-01,2.101e+00
5.075e-01,2.125e+00
5.125e-01,2.147e+00
5.175e-01,2.167e+00
5.225e-01,2.185e+00
5.275e-01,2.201e+00
5.325e-01,2.216e+00
5.375e-01,2.228e+00
5.425e-01,2.239e+00
5.475e-01,2.247e+00
5.525e-01,2.254e+00
5.575e-01,2.259e+00
5.625e-01,2.261e+00
5.675e-01,2.262e+00
5.725e-01,2.261e+00
5.775e-01,2.257e+00
5.825e-01,2.252e+00
5.875e-01,2.245e+00
5.925e-01,2.236e+00
5.975e-01,2.225e+00
6.025e-01,2.212e+00
6.075e-01,2.197e+00
6.125e-01,2.181e+00
6.175e-01,2.163e+00
6.225e-01,2.144e+00
6.275e-01,2.123e+00
6.325e-01,2.101e+00
6.375e-01,2.077e+00
6.425e-01,2.052e+00
6.475e-01,2.026e+00
6.525e-01,1.999e+00
6.575e-01,1.970e+00
6.625e-01,1.941e+00
6.675e-01,1.910e+00
6.725e-01,1.879e+00
6.775e-01,1.847e+00
6.825e-01,1.814e+00
6.875e-01,1.781e+00
6.925e-01,1.747e+00
6.975e-01,1.713e+00
7.025e-01,1.678e+00
7.075e-01,1.643e+00
7.125e-01,1.608e+00
7.175e-01,1.572e+00
7.225e-01,1.536e+00
7.275e-01,1.500e+00
7.325e-01,1.465e+00
7.375e-01,1.429e+00
7.425e-01,1.393e+00
7.475e-01,1.357e+00
7.525e-01,1.322e+00
7.575e-01,1.287e+00
7.625e-01,1.252e+00
7.675e-01,1.217e+00
7.725e-01,1.183e+00
7.775e-01,1.149e+00
7.825e-01,1.115e+00
7.875e-01,1.082e+00
7.925e-01,1.049e+00
7.975e-01,1.017e+00
8.025e-01,9.857e-01
8.075e-01,9.546e-01
8.125e-01,9.241e-01
8.175e-01,8.942e-01
8.225e-01,8.648e-01
8.275e-01,8.360e-01
8.325e-01,8.079e-01
8.375e-01,7.804e-01
8.425e-01,7.535e-01
8.475e-01,7.272e-01
8.525e-01,7.016e-01
8.575e-01,6.766e-01
8.625e-01,6.522e-01
8.675e-01,6.285e-01
8.725e-01,6.054e-01
8.775e-01,5.829e-01
8.825e-01,5.611e-01
8.875e-01,5.399e-01
8.925e-01,5.193e-01
8.975e-01,4.994e-01
9.025e-01,4.800e-01
9.075e-01,4.612e-01
9.125e-01,4.431e-01
9.175e-01,4.255e-01
9.225e-01,4.084e-01
9.275e-01,3.920e-01
9.325e-01,3.760e-01
9.375e-01,3.607e-01
9.425e-01,3.458e-01
9.475e-01,3.315e-01
9.525e-01,3.176e-01
9.575e-01,3.043e-01
9.625e-01,2.914e-01
9.675e-01,2.790e-01
9.725e-01,2.671e-01
9.775e-01,2.556e-01
9.825e-01,2.445e-01
9.875e-01,2.339e-01
9.925e-01,2.236e-01
9.975e-01,2.138e-01
