transmittance,probability_density
2.500e-03,1.607e-14
7.500e-03,1.176e-04
1.250e-02,3.094e-03
1.750e-02,3.830e-03
2.250e-02,3.760e-03
2.750e-02,4.754e-03
3.250e-02,7.021e-03
3.750e-02,9.675e-03
4.250e-02,1.233e-02
4.750e-02,1.542e-02
5.250e-02,1.937e-02
5.750e-02,2.418e-02
6.250e-02,2.960e-02
6.750e-02,3.532e-02
7.250e-02,4.116e-02
7.750e-02,4.709e-02
8.250e-02,5.316e-02
8.750e-02,5.951e-02
9.250e-02,6.625e-02
9.750e-02,7.347e-02
1.025e-01,8.125e-02
1.075e-01,8.959e-02
1.125e-01,9.851e-02
1.175e-01,1.080e-01
1.225e-01,1.180e-01
1.275e-01,1.284e-01
1.325e-01,1.393e-01
1.375e-01,1.506e-01
1.425e-01,1.623e-01
1.475e-01,1.744e-01
1.525e-01,1.870e-01
1.575e-01,1.999e-01
1.625e-01,2.133e-01
1.675e-01,2.272e-01
1.725e-01,2.415e-01
1.775e-01,2.564e-01
1.825e-01,2.719e-01
1.875e-01,2.879e-01
1.925e-01,3.045e-01
1.975e-01,3.218e-01
2.025e-01,3.396e-01
2.075e-01,3.581e-01
2.125e-01,3.773e-01
2.175e-01,3.970e-01
2.225e-01,4.174e-01
2.275e-01,4.385e-01
2.325e-01,4.601e-01
2.375e-01,4.824e-01
2.425e-01,5.052e-01
2.475e-01,5.287e-01
2.525e-01,5.527e-01
2.575e-01,5.774e-01
2.625e-01,6.026e-01
2.675e-01,6.284e-01
2.725e-01,6.548e-01
2.775e-01,6.817e-01
2.825e-01,7.093e-01
2.875e-01,7.374e-01
2.925e-01,7.661e-01
2.975e-01,7.953e-01
3.025e-01,8.252e-01
3.075e-01,8.556e-01
3.125e-01,8.865e-01
3.175e-01,9.181e-01
3.225e-01,9.501e-01
3.275e-01,9.828e-01
3.325e-01,1.016e+00
3.375e-01,1.050e+00
3.425e-01,1.084e+00
3.475e-01,1.118e+00
3.525e-01,1.153e+00
3.575e-01,1.189e+00
3.625e-01,1.224e+00
3.675e-01,1.261e+00
3.725e-01,1.297e+00
3.775e-01,1.333e+00
3.825e-01,1.370e+00
3.875e-01,1.407e+00
3.925e-01,1.444e+00
3.975e-01,1.481e+00
4.025e-01,1.517e+00
4.075e-01,1.554e+00
4.125e-01,1.590e+00
4.175e-01,1.626e+00
4.225e-01,1.661e+00
4.275e-01,1.696e+00
4.325e-01,1.731e+00
4.375e-01,1.764e+00
4.425e-01,1.797e+00
4.475e-01,1.829e+00
4.525e-01,1.861e+00
4.575e-01,1.891e+00
4.625e-01,1.920e+00
4.675e-01,1.948e+00
4.725e-01,1.974e+00
4.775e-01,2.000e+00
4.825e-01,2.023e+00
4.875e-01,2.046e+00
4.925e-01,2.067e+00
4.975e-01,2.086e+00
5.025e-01,2.104e+00
5.075e-01,2.120e+00
5.125e-01,2.135e+00
5.175e-01,2.147e+00
5.225e-01,2.158e+00
5.275e-01,2.168e+00
5.325e-01,2.175e+00
5.375e-01,2.181e+00
5.425e-01,2.184e+00
5.475e-01,2.186e+00
5.525e-01,2.187e+00
5.575e-01,2.185e+00
5.625e-01,2.182e+00
5.675e-01,2.176e+00
5.725e-01,2.170e+00
5.775e-01,2.161e+00
5.825e-01,2.151e+00
5.875e-01,2.139e+00
5.925e-01,2.126e+00
5.975e-01,2.111e+00
6.025e-01,2.094e+00
6.075e-01,2.077e+00
6.125e-01,2.057e+00
6.175e-01,2.037e+00
6.225e-01,2.015e+00
6.275e-01,1.992e+00
6.325e-01,1.968e+00
6.375e-01,1.943e+00
6.425e-01,1.917e+00
6.475e-01,1.890e+00
6.525e-01,1.862e+00
6.575e-01,1.834e+00
6.625e-01,1.804e+00
6.675e-01,1.774e+00
6.725e-01,1.744e+00
6.775e-01,1.713e+00
6.825e-01,1.681e+00
6.875e-01,1.649e+00
6.925e-01,1.617e+00
6.975e-01,1.584e+00
7.025e-01,1.551e+00
7.075e-01,1.518e+00
7.125e-01,1.485e+00
7.175e-01,1.452e+00
7.225e-01,1.418e+00
7.275e-01,1.385e+00
7.325e-01,1.352e+00
7.375e-01,1.319e+00
7.425e-01,1.286e+00
7.475e-01,1.253e+00
7.525e-01,1.221e+00
7.575e-01,1.189e+00
7.625e-01,1.157e+00
7.675e-01,1.125e+00
7.725e-01,1.094e+00
7.775e-01,1.063e+00
7.825e-01,1.033e+00
7.875e-01,1.003e+00
7.925e-01,9.734e-01
7.975e-01,9.443e-01
8.025e-01,9.157e-01
8.075e-01,8.877e-01
8.125e-01,8.601e-01
8.175e-01,8.331e-01
8.225e-01,8.066e-01
8.275e-01,7.807e-01
8.325e-01,7.553e-01
8.375e-01,7.304e-01
8.425e-01,7.062e-01
8.475e-01,6.825e-01
8.525e-01,6.593e-01
8.575e-01,6.367e-01
8.625e-01,6.147e-01
8.675e-01,5.933e-01
8.725e-01,5.724e-01
8.775e-01,5.520e-01
8.825e-01,5.323e-01
8.875e-01,5.130e-01
8.925e-01,4.944e-01
8.975e-01,4.762e-01
9.025e-01,4.586e-01
9.075e-01,4.415e-01
9.125e-01,4.249e-01
9.175e-01,4.088e-01
9.225e-01,3.933e-01
9.275e-01,3.782e-01
9.325e-01,3.636e-01
9.375e-01,3.495e-01
9.425e-01,3.358e-01
9.475e-01,3.226e-01
9.525e-01,3.098e-01
9.575e-01,2.975e-01
9.625e-01,2.856e-01
9.675e-01,2.741e-01
9.725e-01,2.630e-01
9.775e-01,2.523e-01
9.825e-01,2.420e-01
9.875e-01,2.320e-01
9.925e-01,2.224e-01
9.975e-01,2.132e-01
