transmittance,probability_density
2.500e-03,9.475e-99
7.500e-03,4.976e-36
1.250e-02,3.986e-18
1.750e-02,3.132e-10
2.250e-02,2.449e-06
2.750e-02,1.952e-04
3.250e-02,1.205e-03
3.750e-02,1.604e-03
4.250e-02,9.810e-04
4.750e-02,1.348e-03
5.250e-02,3.114e-03
5.750e-02,4.953e-03
6.250e-02,5.924e-03
6.750e-02,6.324e-03
7.250e-02,6.749e-03
7.750e-02,7.482e-03
8.250e-02,8.504e-03
8.750e-02,9.633e-03
9.250e-02,1.071e-02
9.750e-02,1.174e-02
1.025e-01,1.279e-02
1.075e-01,1.398e-02
1.125e-01,1.534e-02
1.175e-01,1.689e-02
1.225e-01,1.859e-02
1.275e-01,2.040e-02
1.325e-01,2.229e-02
1.375e-01,2.426e-02
1.425e-01,2.635e-02
1.475e-01,2.858e-02
1.525e-01,3.101e-02
1.575e-01,3.364e-02
1.625e-01,3.650e-02
1.675e-01,3.956e-02
1.725e-01,4.283e-02
1.775e-01,4.627e-02
1.825e-01,4.989e-02
1.875e-01,5.367e-02
1.925e-01,5.761e-02
1.975e-01,6.172e-02
2.025e-01,6.600e-02
2.075e-01,7.046e-02
2.125e-01,7.510e-02
2.175e-01,7.994e-02
2.225e-01,8.499e-02
2.275e-01,9.025e-02
2.325e-01,9.573e-02
2.375e-01,1.014e-01
2.425e-01,1.073e-01
2.475e-01,1.135e-01
2.525e-01,1.199e-01
2.575e-01,1.265e-01
2.625e-01,1.334e-01
2.675e-01,1.407e-01
2.725e-01,1.482e-01
2.775e-01,1.561e-01
2.825e-01,1.643e-01
2.875e-01,1.729e-01
2.925e-01,1.819e-01
2.975e-01,1.913e-01
3.025e-01,2.011e-01
3.075e-01,2.113e-01
3.125e-01,2.218e-01
3.175e-01,2.326e-01
3.225e-01,2.438e-01
3.275e-01,2.554e-01
3.325e-01,2.672e-01
3.375e-01,2.794e-01
3.425e-01,2.918e-01
3.475e-01,3.046e-01
3.525e-01,3.176e-01
3.575e-01,3.309e-01
3.625e-01,3.446e-01
3.675e-01,3.585e-01
3.725e-01,3.728e-01
3.775e-01,3.875e-01
3.825e-01,4.025e-01
3.875e-01,4.179e-01
3.925e-01,4.336e-01
3.975e-01,4.498e-01
4.025e-01,4.664e-01
4.075e-01,4.835e-01
4.125e-01,5.010e-01
4.175e-01,5.191e-01
4.225e-01,5.376e-01
4.275e-01,5.566e-01
4.325e-01,5.761e-01
4.375e-01,5.962e-01
4.425e-01,6.169e-01
4.475e-01,6.381e-01
4.525e-01,6.598e-01
4.575e-01,6.822e-01
4.625e-01,7.052e-01
4.675e-01,7.287e-01
4.725e-01,7.529e-01
4.775e-01,7.777e-01
4.825e-01,8.031e-01
4.875e-01,8.292e-01
4.925e-01,8.559e-01
4.975e-01,8.833e-01
5.025e-01,9.113e-01
5.075e-01,9.401e-01
5.125e-01,9.695e-01
5.175e-01,9.997e-01
5.225e-01,1.031e+00
5.275e-01,1.062e+00
5.325e-01,1.095e+00
5.375e-01,1.128e+00
5.425e-01,1.162e+00
5.475e-01,1.196e+00
5.525e-01,1.232e+00
5.575e-01,1.268e+00
5.625e-01,1.306e+00
5.675e-01,1.344e+00
5.725e-01,1.383e+00
5.775e-01,1.422e+00
5.825e-01,1.463e+00
5.875e-01,1.504e+00
5.925e-01,1.546e+00
5.975e-01,1.589e+00
6.025e-01,1.633e+00
6.075e-01,1.677e+00
6.125e-01,1.722e+00
6.175e-01,1.767e+00
6.225e-01,1.813e+00
6.275e-01,1.859e+00
6.325e-01,1.906e+00
6.375e-01,1.952e+00
6.425e-01,1.999e+00
6.475e-01,2.046e+00
6.525e-01,2.092e+00
6.575e-01,2.138e+00
6.625e-01,2.183e+00
6.675e-01,2.228e+00
6.725e-01,2.271e+00
6.775e-01,2.314e+00
6.825e-01,2.355e+00
6.875e-01,2.394e+00
6.925e-01,2.432e+00
6.975e-01,2.468e+00
7.025e-01,2.501e+00
7.075e-01,2.533e+00
7.125e-01,2.561e+00
7.175e-01,2.588e+00
7.225e-01,2.611e+00
7.275e-01,2.631e+00
7.325e-01,2.648e+00
7.375e-01,2.661e+00
7.425e-01,2.671e+00
7.475e-01,2.678e+00
7.525e-01,2.681e+00
7.575e-01,2.680e+00
7.625e-01,2.675e+00
7.675e-01,2.667e+00
7.725e-01,2.655e+00
7.775e-01,2.639e+00
7.825e-01,2.620e+00
7.875e-01,2.597e+00
7.925e-01,2.570e+00
7.975e-01,2.540e+00
8.025e-01,2.507e+00
8.075e-01,2.470e+00
8.125e-01,2.431e+00
8.175e-01,2.388e+00
8.225e-01,2.343e+00
8.275e-01,2.295e+00
8.325e-01,2.245e+00
8.375e-01,2.193e+00
8.425e-01,2.139e+00
8.475e-01,2.084e+00
8.525e-01,2.027e+00
8.575e-01,1.969e+00
8.625e-01,1.909e+00
8.675e-01,1.849e+00
8.725e-01,1.788e+00
8.775e-01,1.727e+00
8.825e-01,1.666e+00
8.875e-01,1.604e+00
8.925e-01,1.543e+00
8.975e-01,1.482e+00
9.025e-01,1.422e+00
9.075e-01,1.362e+00
9.125e-01,1.304e+00
9.175e-01,1.246e+00
9.225e-01,1.189e+00
9.275e-01,1.133e+00
9.325e-01,1.079e+00
9.375e-01,1.026e+00
9.425e-01,9.738e-01
9.475e-01,9.236e-01
9.525e-01,8.750e-01
9.575e-01,8.279e-01
9.625e-01,7.824e-01
9.675e-01,7.386e-01
9.725e-01,6.964e-01
9.775e-01,6.559e-01
9.825e-01,6.171e-01
9.875e-01,5.799e-01
9.925e-01,5.444e-01
9.975e-01,5.105e-01
