transmittance,probability_density
2.500e-03,0.000e+00
7.500e-03,2.045e-246
1.250e-02,4.459e-145
1.750e-02,3.359e-93
2.250e-02,3.693e-62
2.750e-02,4.182e-42
3.250e-02,1.292e-28
3.750e-02,2.246e-19
4.250e-02,4.804e-13
4.750e-02,8.616e-09
5.250e-02,4.569e-06
5.750e-02,1.708e-04
6.250e-02,8.809e-04
6.750e-02,1.472e-03
7.250e-02,2.356e-03
7.750e-02,3.008e-03
8.250e-02,2.590e-03
8.750e-02,2.010e-03
9.250e-02,1.508e-03
9.750e-02,1.440e-03
1.025e-01,2.078e-03
1.075e-01,3.004e-03
1.125e-01,3.731e-03
1.175e-01,4.437e-03
1.225e-01,5.573e-03
1.275e-01,7.072e-03
1.325e-01,8.479e-03
1.375e-01,9.535e-03
1.425e-01,1.031e-02
1.475e-01,1.092e-02
1.525e-01,1.143e-02
1.575e-01,1.184e-02
1.625e-01,1.220e-02
1.675e-01,1.262e-02
1.725e-01,1.322e-02
1.775e-01,1.402e-02
1.825e-01,1.503e-02
1.875e-01,1.630e-02
1.925e-01,1.795e-02
1.975e-01,1.999e-02
2.025e-01,2.229e-02
2.075e-01,2.455e-02
2.125e-01,2.650e-02
2.175e-01,2.808e-02
2.225e-01,2.940e-02
2.275e-01,3.071e-02
2.325e-01,3.220e-02
2.375e-01,3.398e-02
2.425e-01,3.609e-02
2.475e-01,3.846e-02
2.525e-01,4.103e-02
2.575e-01,4.376e-02
2.625e-01,4.666e-02
2.675e-01,4.977e-02
2.725e-01,5.314e-02
2.775e-01,5.683e-02
2.825e-01,6.085e-02
2.875e-01,6.522e-02
2.925e-01,6.994e-02
2.975e-01,7.497e-02
3.025e-01,8.030e-02
3.075e-01,8.586e-02
3.125e-01,9.161e-02
3.175e-01,9.745e-02
3.225e-01,1.033e-01
3.275e-01,1.092e-01
3.325e-01,1.150e-01
3.375e-01,1.207e-01
3.425e-01,1.263e-01
3.475e-01,1.319e-01
3.525e-01,1.375e-01
3.575e-01,1.431e-01
3.625e-01,1.488e-01
3.675e-01,1.547e-01
3.725e-01,1.607e-01
3.775e-01,1.671e-01
3.825e-01,1.738e-01
3.875e-01,1.810e-01
3.925e-01,1.886e-01
3.975e-01,1.968e-01
4.025e-01,2.056e-01
4.075e-01,2.149e-01
4.125e-01,2.246e-01
4.175e-01,2.348e-01
4.225e-01,2.452e-01
4.275e-01,2.560e-01
4.325e-01,2.670e-01
4.375e-01,2.782e-01
4.425e-01,2.895e-01
4.475e-01,3.010e-01
4.525e-01,3.125e-01
4.575e-01,3.242e-01
4.625e-01,3.360e-01
4.675e-01,3.480e-01
4.725e-01,3.602e-01
4.775e-01,3.727e-01
4.825e-01,3.854e-01
4.875e-01,3.985e-01
4.925e-01,4.121e-01
4.975e-01,4.261e-01
5.025e-01,4.408e-01
5.075e-01,4.562e-01
5.125e-01,4.722e-01
5.175e-01,4.891e-01
5.225e-01,5.067e-01
5.275e-01,5.252e-01
5.325e-01,5.445e-01
5.375e-01,5.646e-01
5.425e-01,5.855e-01
5.475e-01,6.073e-01
5.525e-01,6.298e-01
5.575e-01,6.530e-01
5.625e-01,6.769e-01
5.675e-01,7.014e-01
5.725e-01,7.266e-01
5.775e-01,7.524e-01
5.825e-01,7.789e-01
5.875e-01,8.059e-01
5.925e-01,8.335e-01
5.975e-01,8.618e-01
6.025e-01,8.907e-01
6.075e-01,9.203e-01
6.125e-01,9.506e-01
6.175e-01,9.817e-01
6.225e-01,1.014e+00
6.275e-01,1.047e+00
6.325e-01,1.080e+00
6.375e-01,1.115e+00
6.425e-01,1.152e+00
6.475e-01,1.189e+00
6.525e-01,1.228e+00
6.575e-01,1.268e+00
6.625e-01,1.309e+00
6.675e-01,1.352e+00
6.725e-01,1.397e+00
6.775e-01,1.443e+00
6.825e-01,1.491e+00
6.875e-01,1.541e+00
6.925e-01,1.592e+00
6.975e-01,1.645e+00
7.025e-01,1.699e+00
7.075e-01,1.755e+00
7.125e-01,1.813e+00
7.175e-01,1.873e+00
7.225e-01,1.935e+00
7.275e-01,1.998e+00
7.325e-01,2.063e+00
7.375e-01,2.131e+00
7.425e-01,2.200e+00
7.475e-01,2.272e+00
7.525e-01,2.345e+00
7.575e-01,2.421e+00
7.625e-01,2.498e+00
7.675e-01,2.578e+00
7.725e-01,2.659e+00
7.775e-01,2.742e+00
7.825e-01,2.827e+00
7.875e-01,2.912e+00
7.925e-01,2.998e+00
7.975e-01,3.083e+00
8.025e-01,3.168e+00
8.075e-01,3.250e+00
8.125e-01,3.330e+00
8.175e-01,3.406e+00
8.225e-01,3.477e+00
8.275e-01,3.542e+00
8.325e-01,3.599e+00
8.375e-01,3.648e+00
8.425e-01,3.686e+00
8.475e-01,3.714e+00
8.525e-01,3.729e+00
8.575e-01,3.731e+00
8.625e-01,3.720e+00
8.675e-01,3.694e+00
8.725e-01,3.654e+00
8.775e-01,3.599e+00
8.825e-01,3.529e+00
8.875e-01,3.446e+00
8.925e-01,3.350e+00
8.975e-01,3.241e+00
9.025e-01,3.121e+00
9.075e-01,2.991e+00
9.125e-01,2.853e+00
9.175e-01,2.708e+00
9.225e-01,2.558e+00
9.275e-01,2.405e+00
9.325e-01,2.249e+00
9.375e-01,2.094e+00
9.425e-01,1.939e+00
9.475e-01,1.787e+00
9.525e-01,1.639e+00
9.575e-01,1.496e+00
9.625e-01,1.358e+00
9.675e-01,1.227e+00
9.725e-01,1.104e+00
9.775e-01,9.880e-01
9.825e-01,8.801e-01
9.875e-01,7.802e-01
9.925e-01,6.884e-01
9.975e-01,6.046e-01
