transmittance,probability_density
2.500e-03,0.000e+00
7.500e-03,8.082e-163
1.250e-02,1.294e-96
1.750e-02,1.093e-62
2.250e-02,2.302e-42
2.750e-02,3.236e-29
3.250e-02,2.341e-20
3.750e-02,2.827e-14
4.250e-02,4.271e-10
4.750e-02,2.829e-07
5.250e-02,1.870e-05
5.750e-02,2.168e-04
6.250e-02,6.576e-04
6.750e-02,6.995e-04
7.250e-02,3.516e-04
7.750e-02,2.717e-04
8.250e-02,6.322e-04
8.750e-02,1.134e-03
9.250e-02,1.492e-03
9.750e-02,1.947e-03
1.025e-01,2.842e-03
1.075e-01,4.061e-03
1.125e-01,5.259e-03
1.175e-01,6.253e-03
1.225e-01,7.017e-03
1.275e-01,7.602e-03
1.325e-01,8.215e-03
1.375e-01,9.170e-03
1.425e-01,1.063e-02
1.475e-01,1.239e-02
1.525e-01,1.404e-02
1.575e-01,1.521e-02
1.625e-01,1.590e-02
1.675e-01,1.634e-02
1.725e-01,1.686e-02
1.775e-01,1.768e-02
1.825e-01,1.885e-02
1.875e-01,2.037e-02
1.925e-01,2.220e-02
1.975e-01,2.432e-02
2.025e-01,2.671e-02
2.075e-01,2.932e-02
2.125e-01,3.208e-02
2.175e-01,3.492e-02
2.225e-01,3.776e-02
2.275e-01,4.057e-02
2.325e-01,4.335e-02
2.375e-01,4.614e-02
2.425e-01,4.900e-02
2.475e-01,5.198e-02
2.525e-01,5.513e-02
2.575e-01,5.847e-02
2.625e-01,6.200e-02
2.675e-01,6.571e-02
2.725e-01,6.957e-02
2.775e-01,7.355e-02
2.825e-01,7.763e-02
2.875e-01,8.182e-02
2.925e-01,8.612e-02
2.975e-01,9.058e-02
3.025e-01,9.525e-02
3.075e-01,1.002e-01
3.125e-01,1.054e-01
3.175e-01,1.111e-01
3.225e-01,1.171e-01
3.275e-01,1.234e-01
3.325e-01,1.301e-01
3.375e-01,1.371e-01
3.425e-01,1.444e-01
3.475e-01,1.519e-01
3.525e-01,1.596e-01
3.575e-01,1.674e-01
3.625e-01,1.753e-01
3.675e-01,1.833e-01
3.725e-01,1.913e-01
3.775e-01,1.995e-01
3.825e-01,2.078e-01
3.875e-01,2.162e-01
3.925e-01,2.248e-01
3.975e-01,2.337e-01
4.025e-01,2.428e-01
4.075e-01,2.523e-01
4.125e-01,2.622e-01
4.175e-01,2.725e-01
4.225e-01,2.833e-01
4.275e-01,2.946e-01
4.325e-01,3.064e-01
4.375e-01,3.188e-01
4.425e-01,3.317e-01
4.475e-01,3.452e-01
4.525e-01,3.593e-01
4.575e-01,3.739e-01
4.625e-01,3.891e-01
4.675e-01,4.047e-01
4.725e-01,4.209e-01
4.775e-01,4.376e-01
4.825e-01,4.547e-01
4.875e-01,4.723e-01
4.925e-01,4.904e-01
4.975e-01,5.088e-01
5.025e-01,5.277e-01
5.075e-01,5.471e-01
5.125e-01,5.668e-01
5.175e-01,5.870e-01
5.225e-01,6.077e-01
5.275e-01,6.288e-01
5.325e-01,6.504e-01
5.375e-01,6.726e-01
5.425e-01,6.953e-01
5.475e-01,7.186e-01
5.525e-01,7.425e-01
5.575e-01,7.671e-01
5.625e-01,7.925e-01
5.675e-01,8.186e-01
5.725e-01,8.454e-01
5.775e-01,8.731e-01
5.825e-01,9.017e-01
5.875e-01,9.312e-01
5.925e-01,9.616e-01
5.975e-01,9.930e-01
6.025e-01,1.025e+00
6.075e-01,1.059e+00
6.125e-01,1.093e+00
6.175e-01,1.129e+00
6.225e-01,1.166e+00
6.275e-01,1.204e+00
6.325e-01,1.243e+00
6.375e-01,1.284e+00
6.425e-01,1.325e+00
6.475e-01,1.368e+00
6.525e-01,1.413e+00
6.575e-01,1.458e+00
6.625e-01,1.506e+00
6.675e-01,1.554e+00
6.725e-01,1.604e+00
6.775e-01,1.656e+00
6.825e-01,1.709e+00
6.875e-01,1.764e+00
6.925e-01,1.820e+00
6.975e-01,1.878e+00
7.025e-01,1.937e+00
7.075e-01,1.998e+00
7.125e-01,2.061e+00
7.175e-01,2.125e+00
7.225e-01,2.191e+00
7.275e-01,2.258e+00
7.325e-01,2.326e+00
7.375e-01,2.396e+00
7.425e-01,2.466e+00
7.475e-01,2.537e+00
7.525e-01,2.608e+00
7.575e-01,2.679e+00
7.625e-01,2.750e+00
7.675e-01,2.820e+00
7.725e-01,2.889e+00
7.775e-01,2.956e+00
7.825e-01,3.020e+00
7.875e-01,3.081e+00
7.925e-01,3.138e+00
7.975e-01,3.191e+00
8.025e-01,3.239e+00
8.075e-01,3.281e+00
8.125e-01,3.316e+00
8.175e-01,3.344e+00
8.225e-01,3.365e+00
8.275e-01,3.378e+00
8.325e-01,3.382e+00
8.375e-01,3.377e+00
8.425e-01,3.363e+00
8.475e-01,3.339e+00
8.525e-01,3.307e+00
8.575e-01,3.265e+00
8.625e-01,3.214e+00
8.675e-01,3.154e+00
8.725e-01,3.086e+00
8.775e-01,3.009e+00
8.825e-01,2.926e+00
8.875e-01,2.836e+00
8.925e-01,2.739e+00
8.975e-01,2.638e+00
9.025e-01,2.532e+00
9.075e-01,2.423e+00
9.125e-01,2.310e+00
9.175e-01,2.196e+00
9.225e-01,2.081e+00
9.275e-01,1.965e+00
9.325e-01,1.850e+00
9.375e-01,1.736e+00
9.425e-01,1.624e+00
9.475e-01,1.514e+00
9.525e-01,1.407e+00
9.575e-01,1.304e+00
9.625e-01,1.204e+00
9.675e-01,1.109e+00
9.725e-01,1.018e+00
9.775e-01,9.314e-01
9.825e-01,8.498e-01
9.875e-01,7.730e-01
9.925e-01,7.011e-01
9.975e-01,6.339e-01
