transmittance,probability_density
1.103e-04,4.086e-13
3.308e-04,8.385e-09
5.514e-04,7.686e-07
7.719e-04,1.416e-05
9.925e-04,1.190e-04
1.213e-03,6.279e-04
1.434e-03,2.431e-03
1.654e-03,7.547e-03
1.875e-03,1.986e-02
2.095e-03,4.599e-02
2.316e-03,9.609e-02
2.536e-03,1.846e-01
2.757e-03,3.307e-01
2.977e-03,5.585e-01
3.198e-03,8.964e-01
3.419e-03,1.377e+00
3.639e-03,2.036e+00
3.860e-03,2.909e+00
4.080e-03,4.033e+00
4.301e-03,5.443e+00
4.521e-03,7.169e+00
4.742e-03,9.238e+00
4.962e-03,1.167e+01
5.183e-03,1.447e+01
5.403e-03,1.765e+01
5.624e-03,2.120e+01
5.845e-03,2.511e+01
6.065e-03,2.934e+01
6.286e-03,3.387e+01
6.506e-03,3.866e+01
6.727e-03,4.366e+01
6.947e-03,4.882e+01
7.168e-03,5.408e+01
7.388e-03,5.939e+01
7.609e-03,6.468e+01
7.830e-03,6.989e+01
8.050e-03,7.498e+01
8.271e-03,7.988e+01
8.491e-03,8.453e+01
8.712e-03,8.891e+01
8.932e-03,9.295e+01
9.153e-03,9.663e+01
9.373e-03,9.992e+01
9.594e-03,1.028e+02
9.814e-03,1.052e+02
1.004e-02,1.072e+02
1.026e-02,1.087e+02
1.048e-02,1.098e+02
1.070e-02,1.105e+02
1.092e-02,1.107e+02
1.114e-02,1.104e+02
1.136e-02,1.098e+02
1.158e-02,1.088e+02
1.180e-02,1.075e+02
1.202e-02,1.058e+02
1.224e-02,1.038e+02
1.246e-02,1.016e+02
1.268e-02,9.906e+01
1.290e-02,9.636e+01
1.312e-02,9.347e+01
1.334e-02,9.043e+01
1.356e-02,8.726e+01
1.378e-02,8.400e+01
1.400e-02,8.067e+01
1.423e-02,7.729e+01
1.445e-02,7.388e+01
1.467e-02,7.047e+01
1.489e-02,6.707e+01
1.511e-02,6.371e+01
1.533e-02,6.039e+01
1.555e-02,5.714e+01
1.577e-02,5.396e+01
1.599e-02,5.086e+01
1.621e-02,4.785e+01
1.643e-02,4.494e+01
1.665e-02,4.214e+01
1.687e-02,3.945e+01
1.709e-02,3.687e+01
1.731e-02,3.440e+01
1.753e-02,3.205e+01
1.775e-02,2.982e+01
1.797e-02,2.770e+01
1.820e-02,2.569e+01
1.842e-02,2.380e+01
1.864e-02,2.202e+01
1.886e-02,2.034e+01
1.908e-02,1.876e+01
1.930e-02,1.729e+01
1.952e-02,1.591e+01
1.974e-02,1.463e+01
1.996e-02,1.343e+01
2.018e-02,1.231e+01
2.040e-02,1.128e+01
2.062e-02,1.032e+01
2.084e-02,9.431e+00
2.106e-02,8.610e+00
2.128e-02,7.853e+00
2.150e-02,7.154e+00
2.172e-02,6.511e+00
2.194e-02,5.920e+00
2.217e-02,5.378e+00
2.239e-02,4.880e+00
2.261e-02,4.425e+00
2.283e-02,4.008e+00
2.305e-02,3.627e+00
2.327e-02,3.280e+00
2.349e-02,2.963e+00
2.371e-02,2.674e+00
2.393e-02,2.412e+00
2.415e-02,2.173e+00
2.437e-02,1.957e+00
2.459e-02,1.761e+00
2.481e-02,1.583e+00
2.503e-02,1.422e+00
2.525e-02,1.276e+00
2.547e-02,1.145e+00
2.569e-02,1.026e+00
2.591e-02,9.189e-01
2.614e-02,8.224e-01
2.636e-02,7.355e-01
2.658e-02,6.574e-01
2.680e-02,5.871e-01
2.702e-02,5.241e-01
2.724e-02,4.674e-01
2.746e-02,4.167e-01
2.768e-02,3.712e-01
2.790e-02,3.305e-01
2.812e-02,2.940e-01
2.834e-02,2.614e-01
2.856e-02,2.323e-01
2.878e-02,2.063e-01
2.900e-02,1.831e-01
2.922e-02,1.625e-01
2.944e-02,1.440e-01
2.966e-02,1.276e-01
2.988e-02,1.130e-01
3.011e-02,1.000e-01
3.033e-02,8.851e-02
3.055e-02,7.825e-02
3.077e-02,6.915e-02
3.099e-02,6.108e-02
3.121e-02,5.392e-02
3.143e-02,4.758e-02
3.165e-02,4.196e-02
3.187e-02,3.699e-02
3.209e-02,3.259e-02
3.231e-02,2.870e-02
3.253e-02,2.526e-02
3.275e-02,2.223e-02
3.297e-02,1.955e-02
3.319e-02,1.718e-02
3.341e-02,1.510e-02
3.363e-02,1.326e-02
3.385e-02,1.164e-02
3.407e-02,1.021e-02
3.430e-02,8.957e-03
3.452e-02,7.853e-03
3.474e-02,6.882e-03
3.496e-02,6.028e-03
3.518e-02,5.279e-03
3.540e-02,4.620e-03
3.562e-02,4.042e-03
3.584e-02,3.535e-03
3.606e-02,3.091e-03
3.628e-02,2.701e-03
3.650e-02,2.359e-03
3.672e-02,2.060e-03
3.694e-02,1.798e-03
3.716e-02,1.569e-03
3.738e-02,1.369e-03
3.760e-02,1.193e-03
3.782e-02,1.040e-03
3.804e-02,9.063e-04
3.827e-02,7.894e-04
3.849e-02,6.873e-04
3.871e-02,5.983e-04
3.893e-02,5.205e-04
3.915e-02,4.528e-04
3.937e-02,3.937e-04
3.959e-02,3.422e-04
3.981e-02,2.973e-04
4.003e-02,2.583e-04
4.025e-02,2.243e-04
4.047e-02,1.947e-04
4.069e-02,1.690e-04
4.091e-02,1.466e-04
4.113e-02,1.271e-04
4.135e-02,1.102e-04
4.157e-02,9.553e-05
4.179e-02,8.277e-05
4.201e-02,7.170e-05
4.224e-02,6.209e-05
4.246e-02,5.375e-05
4.268e-02,4.652e-05
4.290e-02,4.025e-05
4.312e-02,3.481e-05
4.334e-02,3.010e-05
4.356e-02,2.602e-05
4.378e-02,2.249e-05
4.400e-02,1.943e-05
