transmittance,probability_density
3.029e-01,2.500e-05
3.064e-01,3.226e-05
3.099e-01,4.148e-05
3.134e-01,5.311e-05
3.169e-01,6.775e-05
3.204e-01,8.609e-05
3.239e-01,1.090e-04
3.274e-01,1.375e-04
3.309e-01,1.729e-04
3.344e-01,2.165e-04
3.379e-01,2.703e-04
3.414e-01,3.363e-04
3.449e-01,4.170e-04
3.484e-01,5.154e-04
3.518e-01,6.350e-04
3.553e-01,7.798e-04
3.588e-01,9.547e-04
3.623e-01,1.165e-03
3.658e-01,1.418e-03
3.693e-01,1.720e-03
3.728e-01,2.081e-03
3.763e-01,2.511e-03
3.798e-01,3.020e-03
3.833e-01,3.622e-03
3.868e-01,4.332e-03
3.903e-01,5.168e-03
3.938e-01,6.148e-03
3.973e-01,7.295e-03
4.008e-01,8.633e-03
4.043e-01,1.019e-02
4.078e-01,1.200e-02
4.112e-01,1.409e-02
4.147e-01,1.650e-02
4.182e-01,1.928e-02
4.217e-01,2.248e-02
4.252e-01,2.614e-02
4.287e-01,3.033e-02
4.322e-01,3.510e-02
4.357e-01,4.052e-02
4.392e-01,4.668e-02
4.427e-01,5.365e-02
4.462e-01,6.152e-02
4.497e-01,7.039e-02
4.532e-01,8.035e-02
4.567e-01,9.152e-02
4.602e-01,1.040e-01
4.637e-01,1.180e-01
4.672e-01,1.335e-01
4.706e-01,1.507e-01
4.741e-01,1.698e-01
4.776e-01,1.910e-01
4.811e-01,2.143e-01
4.846e-01,2.399e-01
4.881e-01,2.680e-01
4.916e-01,2.989e-01
4.951e-01,3.326e-01
4.986e-01,3.693e-01
5.021e-01,4.093e-01
5.056e-01,4.527e-01
5.091e-01,4.997e-01
5.126e-01,5.505e-01
5.161e-01,6.052e-01
5.196e-01,6.640e-01
5.231e-01,7.271e-01
5.266e-01,7.946e-01
5.300e-01,8.667e-01
5.335e-01,9.435e-01
5.370e-01,1.025e+00
5.405e-01,1.112e+00
5.440e-01,1.203e+00
5.475e-01,1.299e+00
5.510e-01,1.401e+00
5.545e-01,1.507e+00
5.580e-01,1.619e+00
5.615e-01,1.735e+00
5.650e-01,1.856e+00
5.685e-01,1.981e+00
5.720e-01,2.111e+00
5.755e-01,2.245e+00
5.790e-01,2.383e+00
5.825e-01,2.525e+00
5.860e-01,2.669e+00
5.894e-01,2.817e+00
5.929e-01,2.967e+00
5.964e-01,3.118e+00
5.999e-01,3.272e+00
6.034e-01,3.425e+00
6.069e-01,3.579e+00
6.104e-01,3.733e+00
6.139e-01,3.885e+00
6.174e-01,4.035e+00
6.209e-01,4.183e+00
6.244e-01,4.327e+00
6.279e-01,4.467e+00
6.314e-01,4.602e+00
6.349e-01,4.732e+00
6.384e-01,4.855e+00
6.419e-01,4.971e+00
6.453e-01,5.079e+00
6.488e-01,5.179e+00
6.523e-01,5.269e+00
6.558e-01,5.349e+00
6.593e-01,5.418e+00
6.628e-01,5.476e+00
6.663e-01,5.523e+00
6.698e-01,5.558e+00
6.733e-01,5.580e+00
6.768e-01,5.589e+00
6.803e-01,5.586e+00
6.838e-01,5.569e+00
6.873e-01,5.540e+00
6.908e-01,5.497e+00
6.943e-01,5.442e+00
6.978e-01,5.374e+00
7.013e-01,5.293e+00
7.047e-01,5.201e+00
7.082e-01,5.097e+00
7.117e-01,4.982e+00
7.152e-01,4.857e+00
7.187e-01,4.722e+00
7.222e-01,4.579e+00
7.257e-01,4.427e+00
7.292e-01,4.269e+00
7.327e-01,4.104e+00
7.362e-01,3.935e+00
7.397e-01,3.761e+00
7.432e-01,3.584e+00
7.467e-01,3.404e+00
7.502e-01,3.224e+00
7.537e-01,3.043e+00
7.572e-01,2.863e+00
7.607e-01,2.684e+00
7.641e-01,2.508e+00
7.676e-01,2.335e+00
7.711e-01,2.167e+00
7.746e-01,2.003e+00
7.781e-01,1.844e+00
7.816e-01,1.692e+00
7.851e-01,1.546e+00
7.886e-01,1.406e+00
7.921e-01,1.274e+00
7.956e-01,1.150e+00
7.991e-01,1.033e+00
8.026e-01,9.232e-01
8.061e-01,8.215e-01
8.096e-01,7.275e-01
8.131e-01,6.410e-01
8.166e-01,5.618e-01
8.201e-01,4.898e-01
8.235e-01,4.247e-01
8.270e-01,3.661e-01
8.305e-01,3.137e-01
8.340e-01,2.672e-01
8.375e-01,2.261e-01
8.410e-01,1.900e-01
8.445e-01,1.586e-01
8.480e-01,1.314e-01
8.515e-01,1.081e-01
8.550e-01,8.822e-02
8.585e-01,7.140e-02
8.620e-01,5.729e-02
8.655e-01,4.556e-02
8.690e-01,3.588e-02
8.725e-01,2.798e-02
8.760e-01,2.159e-02
8.795e-01,1.648e-02
8.829e-01,1.243e-02
8.864e-01,9.264e-03
8.899e-01,6.812e-03
8.934e-01,4.941e-03
8.969e-01,3.530e-03
9.004e-01,2.483e-03
9.039e-01,1.717e-03
9.074e-01,1.166e-03
9.109e-01,7.768e-04
9.144e-01,5.067e-04
9.179e-01,3.230e-04
9.214e-01,2.009e-04
9.249e-01,1.217e-04
9.284e-01,7.156e-05
9.319e-01,4.075e-05
9.354e-01,2.239e-05
9.389e-01,1.183e-05
9.423e-01,5.976e-06
9.458e-01,2.874e-06
9.493e-01,1.307e-06
9.528e-01,5.572e-07
9.563e-01,2.207e-07
9.598e-01,8.017e-08
9.633e-01,2.630e-08
9.668e-01,7.638e-09
9.703e-01,1.910e-09
9.738e-01,3.963e-10
9.773e-01,6.466e-11
9.808e-01,7.656e-12
9.843e-01,5.780e-13
9.878e-01,2.216e-14
9.913e-01,2.720e-16
9.948e-01,3.242e-19
9.983e-01,1.490e-25
