transmittance,probability_density
1.782e-01,3.118e-07
1.824e-01,4.886e-07
1.865e-01,7.565e-07
1.906e-01,1.158e-06
1.947e-01,1.751e-06
1.988e-01,2.621e-06
2.030e-01,3.883e-06
2.071e-01,5.695e-06
2.112e-01,8.273e-06
2.153e-01,1.191e-05
2.194e-01,1.698e-05
2.236e-01,2.402e-05
2.277e-01,3.368e-05
2.318e-01,4.686e-05
2.359e-01,6.469e-05
2.400e-01,8.862e-05
2.441e-01,1.205e-04
2.483e-01,1.628e-04
2.524e-01,2.183e-04
2.565e-01,2.909e-04
2.606e-01,3.851e-04
2.647e-01,5.066e-04
2.689e-01,6.623e-04
2.730e-01,8.608e-04
2.771e-01,1.112e-03
2.812e-01,1.429e-03
2.853e-01,1.826e-03
2.895e-01,2.321e-03
2.936e-01,2.935e-03
2.977e-01,3.692e-03
3.018e-01,4.621e-03
3.059e-01,5.756e-03
3.101e-01,7.135e-03
3.142e-01,8.804e-03
3.183e-01,1.081e-02
3.224e-01,1.322e-02
3.265e-01,1.610e-02
3.306e-01,1.951e-02
3.348e-01,2.356e-02
3.389e-01,2.832e-02
3.430e-01,3.391e-02
3.471e-01,4.044e-02
3.512e-01,4.804e-02
3.554e-01,5.685e-02
3.595e-01,6.702e-02
3.636e-01,7.872e-02
3.677e-01,9.213e-02
3.718e-01,1.074e-01
3.760e-01,1.248e-01
3.801e-01,1.445e-01
3.842e-01,1.668e-01
3.883e-01,1.918e-01
3.924e-01,2.199e-01
3.966e-01,2.512e-01
4.007e-01,2.861e-01
4.048e-01,3.248e-01
4.089e-01,3.675e-01
4.130e-01,4.145e-01
4.171e-01,4.662e-01
4.213e-01,5.226e-01
4.254e-01,5.841e-01
4.295e-01,6.509e-01
4.336e-01,7.232e-01
4.377e-01,8.012e-01
4.419e-01,8.850e-01
4.460e-01,9.747e-01
4.501e-01,1.070e+00
4.542e-01,1.172e+00
4.583e-01,1.280e+00
4.625e-01,1.394e+00
4.666e-01,1.514e+00
4.707e-01,1.640e+00
4.748e-01,1.771e+00
4.789e-01,1.907e+00
4.831e-01,2.049e+00
4.872e-01,2.195e+00
4.913e-01,2.345e+00
4.954e-01,2.498e+00
4.995e-01,2.655e+00
5.036e-01,2.813e+00
5.078e-01,2.974e+00
5.119e-01,3.135e+00
5.160e-01,3.296e+00
5.201e-01,3.457e+00
5.242e-01,3.616e+00
5.284e-01,3.772e+00
5.325e-01,3.924e+00
5.366e-01,4.072e+00
5.407e-01,4.215e+00
5.448e-01,4.351e+00
5.490e-01,4.479e+00
5.531e-01,4.599e+00
5.572e-01,4.710e+00
5.613e-01,4.811e+00
5.654e-01,4.901e+00
5.696e-01,4.979e+00
5.737e-01,5.045e+00
5.778e-01,5.098e+00
5.819e-01,5.138e+00
5.860e-01,5.164e+00
5.902e-01,5.176e+00
5.943e-01,5.173e+00
5.984e-01,5.157e+00
6.025e-01,5.126e+00
6.066e-01,5.081e+00
6.107e-01,5.023e+00
6.149e-01,4.951e+00
6.190e-01,4.866e+00
6.231e-01,4.768e+00
6.272e-01,4.659e+00
6.313e-01,4.539e+00
6.355e-01,4.409e+00
6.396e-01,4.269e+00
6.437e-01,4.122e+00
6.478e-01,3.967e+00
6.519e-01,3.806e+00
6.561e-01,3.641e+00
6.602e-01,3.471e+00
6.643e-01,3.298e+00
6.684e-01,3.124e+00
6.725e-01,2.949e+00
6.767e-01,2.774e+00
6.808e-01,2.601e+00
6.849e-01,2.430e+00
6.890e-01,2.262e+00
6.931e-01,2.098e+00
6.972e-01,1.939e+00
7.014e-01,1.785e+00
7.055e-01,1.637e+00
7.096e-01,1.495e+00
7.137e-01,1.360e+00
7.178e-01,1.232e+00
7.220e-01,1.112e+00
7.261e-01,9.992e-01
7.302e-01,8.939e-01
7.343e-01,7.961e-01
7.384e-01,7.057e-01
7.426e-01,6.227e-01
7.467e-01,5.468e-01
7.508e-01,4.778e-01
7.549e-01,4.154e-01
7.590e-01,3.593e-01
7.632e-01,3.091e-01
7.673e-01,2.644e-01
7.714e-01,2.249e-01
7.755e-01,1.902e-01
7.796e-01,1.599e-01
7.837e-01,1.336e-01
7.879e-01,1.109e-01
7.920e-01,9.140e-02
7.961e-01,7.484e-02
8.002e-01,6.084e-02
8.043e-01,4.909e-02
8.085e-01,3.931e-02
8.126e-01,3.123e-02
8.167e-01,2.460e-02
8.208e-01,1.921e-02
8.249e-01,1.487e-02
8.291e-01,1.140e-02
8.332e-01,8.653e-03
8.373e-01,6.502e-03
8.414e-01,4.832e-03
8.455e-01,3.551e-03
8.497e-01,2.578e-03
8.538e-01,1.849e-03
8.579e-01,1.308e-03
8.620e-01,9.129e-04
8.661e-01,6.276e-04
8.702e-01,4.248e-04
8.744e-01,2.828e-04
8.785e-01,1.849e-04
8.826e-01,1.187e-04
8.867e-01,7.461e-05
8.908e-01,4.591e-05
8.950e-01,2.760e-05
8.991e-01,1.618e-05
9.032e-01,9.232e-06
9.073e-01,5.114e-06
9.114e-01,2.743e-06
9.156e-01,1.421e-06
9.197e-01,7.079e-07
9.238e-01,3.380e-07
9.279e-01,1.540e-07
9.320e-01,6.651e-08
9.362e-01,2.707e-08
9.403e-01,1.031e-08
9.444e-01,3.633e-09
9.485e-01,1.172e-09
9.526e-01,3.410e-10
9.567e-01,8.785e-11
9.609e-01,1.955e-11
9.650e-01,3.637e-12
9.691e-01,5.413e-13
9.732e-01,6.041e-14
9.773e-01,4.593e-15
9.815e-01,2.038e-16
9.856e-01,4.017e-18
9.897e-01,2.025e-20
9.938e-01,6.257e-24
9.979e-01,1.582e-31
