transmittance,probability_density
2.036e-01,5.970e-05
2.076e-01,8.320e-05
2.116e-01,1.150e-04
2.156e-01,1.576e-04
2.196e-01,2.143e-04
2.236e-01,2.892e-04
2.276e-01,3.874e-04
2.316e-01,5.152e-04
2.356e-01,6.805e-04
2.396e-01,8.927e-04
2.436e-01,1.164e-03
2.475e-01,1.507e-03
2.515e-01,1.940e-03
2.555e-01,2.482e-03
2.595e-01,3.157e-03
2.635e-01,3.993e-03
2.675e-01,5.022e-03
2.715e-01,6.284e-03
2.755e-01,7.820e-03
2.795e-01,9.684e-03
2.835e-01,1.193e-02
2.875e-01,1.463e-02
2.915e-01,1.785e-02
2.954e-01,2.168e-02
2.994e-01,2.622e-02
3.034e-01,3.156e-02
3.074e-01,3.782e-02
3.114e-01,4.514e-02
3.154e-01,5.365e-02
3.194e-01,6.350e-02
3.234e-01,7.485e-02
3.274e-01,8.789e-02
3.314e-01,1.028e-01
3.354e-01,1.198e-01
3.394e-01,1.391e-01
3.433e-01,1.609e-01
3.473e-01,1.854e-01
3.513e-01,2.129e-01
3.553e-01,2.437e-01
3.593e-01,2.779e-01
3.633e-01,3.159e-01
3.673e-01,3.579e-01
3.713e-01,4.041e-01
3.753e-01,4.548e-01
3.793e-01,5.103e-01
3.833e-01,5.707e-01
3.873e-01,6.363e-01
3.912e-01,7.073e-01
3.952e-01,7.838e-01
3.992e-01,8.659e-01
4.032e-01,9.538e-01
4.072e-01,1.048e+00
4.112e-01,1.147e+00
4.152e-01,1.253e+00
4.192e-01,1.364e+00
4.232e-01,1.481e+00
4.272e-01,1.604e+00
4.312e-01,1.732e+00
4.352e-01,1.865e+00
4.391e-01,2.003e+00
4.431e-01,2.145e+00
4.471e-01,2.291e+00
4.511e-01,2.441e+00
4.551e-01,2.593e+00
4.591e-01,2.748e+00
4.631e-01,2.904e+00
4.671e-01,3.062e+00
4.711e-01,3.219e+00
4.751e-01,3.376e+00
4.791e-01,3.531e+00
4.831e-01,3.684e+00
4.871e-01,3.834e+00
4.910e-01,3.979e+00
4.950e-01,4.120e+00
4.990e-01,4.255e+00
5.030e-01,4.383e+00
5.070e-01,4.504e+00
5.110e-01,4.617e+00
5.150e-01,4.720e+00
5.190e-01,4.813e+00
5.230e-01,4.896e+00
5.270e-01,4.968e+00
5.310e-01,5.028e+00
5.350e-01,5.076e+00
5.389e-01,5.112e+00
5.429e-01,5.134e+00
5.469e-01,5.144e+00
5.509e-01,5.141e+00
5.549e-01,5.124e+00
5.589e-01,5.094e+00
5.629e-01,5.052e+00
5.669e-01,4.997e+00
5.709e-01,4.929e+00
5.749e-01,4.850e+00
5.789e-01,4.760e+00
5.829e-01,4.659e+00
5.868e-01,4.548e+00
5.908e-01,4.427e+00
5.948e-01,4.299e+00
5.988e-01,4.162e+00
6.028e-01,4.019e+00
6.068e-01,3.870e+00
6.108e-01,3.717e+00
6.148e-01,3.559e+00
6.188e-01,3.398e+00
6.228e-01,3.236e+00
6.268e-01,3.072e+00
6.308e-01,2.908e+00
6.347e-01,2.744e+00
6.387e-01,2.582e+00
6.427e-01,2.422e+00
6.467e-01,2.265e+00
6.507e-01,2.112e+00
6.547e-01,1.963e+00
6.587e-01,1.818e+00
6.627e-01,1.679e+00
6.667e-01,1.545e+00
6.707e-01,1.417e+00
6.747e-01,1.296e+00
6.787e-01,1.180e+00
6.827e-01,1.071e+00
6.866e-01,9.690e-01
6.906e-01,8.733e-01
6.946e-01,7.841e-01
6.986e-01,7.013e-01
7.026e-01,6.249e-01
7.066e-01,5.546e-01
7.106e-01,4.903e-01
7.146e-01,4.316e-01
7.186e-01,3.784e-01
7.226e-01,3.303e-01
7.266e-01,2.871e-01
7.306e-01,2.484e-01
7.345e-01,2.139e-01
7.385e-01,1.834e-01
7.425e-01,1.565e-01
7.465e-01,1.328e-01
7.505e-01,1.122e-01
7.545e-01,9.425e-02
7.585e-01,7.877e-02
7.625e-01,6.547e-02
7.665e-01,5.411e-02
7.705e-01,4.446e-02
7.745e-01,3.631e-02
7.785e-01,2.947e-02
7.824e-01,2.377e-02
7.864e-01,1.904e-02
7.904e-01,1.515e-02
7.944e-01,1.197e-02
7.984e-01,9.391e-03
8.024e-01,7.310e-03
8.064e-01,5.646e-03
8.104e-01,4.325e-03
8.144e-01,3.285e-03
8.184e-01,2.474e-03
8.224e-01,1.845e-03
8.264e-01,1.364e-03
8.303e-01,9.976e-04
8.343e-01,7.222e-04
8.383e-01,5.172e-04
8.423e-01,3.662e-04
8.463e-01,2.561e-04
8.503e-01,1.769e-04
8.543e-01,1.206e-04
8.583e-01,8.108e-05
8.623e-01,5.371e-05
8.663e-01,3.503e-05
8.703e-01,2.247e-05
8.743e-01,1.417e-05
8.782e-01,8.769e-06
8.822e-01,5.320e-06
8.862e-01,3.161e-06
8.902e-01,1.836e-06
8.942e-01,1.041e-06
8.982e-01,5.751e-07
9.022e-01,3.089e-07
9.062e-01,1.610e-07
9.102e-01,8.116e-08
9.142e-01,3.948e-08
9.182e-01,1.846e-08
9.222e-01,8.271e-09
9.262e-01,3.532e-09
9.301e-01,1.431e-09
9.341e-01,5.463e-10
9.381e-01,1.952e-10
9.421e-01,6.469e-11
9.461e-01,1.967e-11
9.501e-01,5.417e-12
9.541e-01,1.329e-12
9.581e-01,2.844e-13
9.621e-01,5.167e-14
9.661e-01,7.683e-15
9.701e-01,8.892e-16
9.741e-01,7.456e-17
9.780e-01,4.066e-18
9.820e-01,1.213e-19
9.860e-01,1.457e-21
9.900e-01,3.795e-24
9.940e-01,4.326e-28
9.980e-01,1.294e-36
