transmittance,probability_density
2.456e-01,2.983e-07
2.494e-01,4.253e-07
2.532e-01,6.024e-07
2.570e-01,8.476e-07
2.607e-01,1.185e-06
2.645e-01,1.647e-06
2.683e-01,2.275e-06
2.721e-01,3.125e-06
2.759e-01,4.267e-06
2.797e-01,5.795e-06
2.834e-01,7.827e-06
2.872e-01,1.052e-05
2.910e-01,1.406e-05
2.948e-01,1.870e-05
2.986e-01,2.474e-05
3.023e-01,3.259e-05
3.061e-01,4.273e-05
3.099e-01,5.575e-05
3.137e-01,7.243e-05
3.175e-01,9.368e-05
3.212e-01,1.206e-04
3.250e-01,1.547e-04
3.288e-01,1.976e-04
3.326e-01,2.513e-04
3.364e-01,3.183e-04
3.402e-01,4.017e-04
3.439e-01,5.050e-04
3.477e-01,6.324e-04
3.515e-01,7.890e-04
3.553e-01,9.808e-04
3.591e-01,1.215e-03
3.628e-01,1.500e-03
3.666e-01,1.845e-03
3.704e-01,2.262e-03
3.742e-01,2.763e-03
3.780e-01,3.365e-03
3.817e-01,4.085e-03
3.855e-01,4.942e-03
3.893e-01,5.961e-03
3.931e-01,7.168e-03
3.969e-01,8.593e-03
4.007e-01,1.027e-02
4.044e-01,1.224e-02
4.082e-01,1.454e-02
4.120e-01,1.722e-02
4.158e-01,2.034e-02
4.196e-01,2.396e-02
4.233e-01,2.815e-02
4.271e-01,3.297e-02
4.309e-01,3.851e-02
4.347e-01,4.487e-02
4.385e-01,5.213e-02
4.422e-01,6.041e-02
4.460e-01,6.982e-02
4.498e-01,8.049e-02
4.536e-01,9.254e-02
4.574e-01,1.061e-01
4.612e-01,1.214e-01
4.649e-01,1.386e-01
4.687e-01,1.577e-01
4.725e-01,1.791e-01
4.763e-01,2.029e-01
4.801e-01,2.292e-01
4.838e-01,2.584e-01
4.876e-01,2.906e-01
4.914e-01,3.260e-01
4.952e-01,3.649e-01
4.990e-01,4.075e-01
5.028e-01,4.539e-01
5.065e-01,5.045e-01
5.103e-01,5.594e-01
5.141e-01,6.189e-01
5.179e-01,6.832e-01
5.217e-01,7.524e-01
5.254e-01,8.267e-01
5.292e-01,9.063e-01
5.330e-01,9.913e-01
5.368e-01,1.082e+00
5.406e-01,1.178e+00
5.443e-01,1.280e+00
5.481e-01,1.387e+00
5.519e-01,1.501e+00
5.557e-01,1.620e+00
5.595e-01,1.744e+00
5.633e-01,1.874e+00
5.670e-01,2.008e+00
5.708e-01,2.148e+00
5.746e-01,2.293e+00
5.784e-01,2.441e+00
5.822e-01,2.594e+00
5.859e-01,2.749e+00
5.897e-01,2.908e+00
5.935e-01,3.069e+00
5.973e-01,3.231e+00
6.011e-01,3.394e+00
6.048e-01,3.558e+00
6.086e-01,3.721e+00
6.124e-01,3.882e+00
6.162e-01,4.041e+00
6.200e-01,4.196e+00
6.238e-01,4.348e+00
6.275e-01,4.494e+00
6.313e-01,4.635e+00
6.351e-01,4.768e+00
6.389e-01,4.893e+00
6.427e-01,5.010e+00
6.464e-01,5.117e+00
6.502e-01,5.213e+00
6.540e-01,5.299e+00
6.578e-01,5.372e+00
6.616e-01,5.432e+00
6.653e-01,5.479e+00
6.691e-01,5.512e+00
6.729e-01,5.531e+00
6.767e-01,5.536e+00
6.805e-01,5.525e+00
6.843e-01,5.500e+00
6.880e-01,5.460e+00
6.918e-01,5.405e+00
6.956e-01,5.336e+00
6.994e-01,5.253e+00
7.032e-01,5.156e+00
7.069e-01,5.046e+00
7.107e-01,4.923e+00
7.145e-01,4.789e+00
7.183e-01,4.644e+00
7.221e-01,4.490e+00
7.259e-01,4.327e+00
7.296e-01,4.156e+00
7.334e-01,3.978e+00
7.372e-01,3.796e+00
7.410e-01,3.609e+00
7.448e-01,3.419e+00
7.485e-01,3.227e+00
7.523e-01,3.035e+00
7.561e-01,2.844e+00
7.599e-01,2.655e+00
7.637e-01,2.468e+00
7.674e-01,2.285e+00
7.712e-01,2.107e+00
7.750e-01,1.935e+00
7.788e-01,1.768e+00
7.826e-01,1.609e+00
7.864e-01,1.458e+00
7.901e-01,1.314e+00
7.939e-01,1.179e+00
7.977e-01,1.052e+00
8.015e-01,9.340e-01
8.053e-01,8.247e-01
8.090e-01,7.242e-01
8.128e-01,6.323e-01
8.166e-01,5.487e-01
8.204e-01,4.733e-01
8.242e-01,4.056e-01
8.279e-01,3.452e-01
8.317e-01,2.918e-01
8.355e-01,2.449e-01
8.393e-01,2.040e-01
8.431e-01,1.686e-01
8.469e-01,1.382e-01
8.506e-01,1.123e-01
8.544e-01,9.040e-02
8.582e-01,7.211e-02
8.620e-01,5.696e-02
8.658e-01,4.452e-02
8.695e-01,3.441e-02
8.733e-01,2.630e-02
8.771e-01,1.985e-02
8.809e-01,1.479e-02
8.847e-01,1.086e-02
8.884e-01,7.866e-03
8.922e-01,5.607e-03
8.960e-01,3.930e-03
8.998e-01,2.705e-03
9.036e-01,1.827e-03
9.074e-01,1.208e-03
9.111e-01,7.812e-04
9.149e-01,4.930e-04
9.187e-01,3.029e-04
9.225e-01,1.808e-04
9.263e-01,1.045e-04
9.300e-01,5.832e-05
9.338e-01,3.130e-05
9.376e-01,1.608e-05
9.414e-01,7.864e-06
9.452e-01,3.639e-06
9.490e-01,1.580e-06
9.527e-01,6.378e-07
9.565e-01,2.364e-07
9.603e-01,7.922e-08
9.641e-01,2.353e-08
9.679e-01,6.028e-09
9.716e-01,1.284e-09
9.754e-01,2.158e-10
9.792e-01,2.640e-11
9.830e-01,2.072e-12
9.868e-01,8.320e-14
9.905e-01,1.084e-15
9.943e-01,1.411e-18
9.981e-01,7.776e-25
