transmittance,probability_density
3.647e-01,3.148e-07
3.679e-01,4.108e-07
3.711e-01,5.345e-07
3.742e-01,6.933e-07
3.774e-01,8.968e-07
3.806e-01,1.157e-06
3.838e-01,1.487e-06
3.870e-01,1.908e-06
3.902e-01,2.440e-06
3.933e-01,3.112e-06
3.965e-01,3.958e-06
3.997e-01,5.022e-06
4.029e-01,6.354e-06
4.061e-01,8.020e-06
4.093e-01,1.010e-05
4.125e-01,1.268e-05
4.156e-01,1.588e-05
4.188e-01,1.985e-05
4.220e-01,2.474e-05
4.252e-01,3.076e-05
4.284e-01,3.817e-05
4.316e-01,4.724e-05
4.347e-01,5.833e-05
4.379e-01,7.187e-05
4.411e-01,8.835e-05
4.443e-01,1.084e-04
4.475e-01,1.326e-04
4.507e-01,1.619e-04
4.539e-01,1.973e-04
4.570e-01,2.399e-04
4.602e-01,2.910e-04
4.634e-01,3.523e-04
4.666e-01,4.257e-04
4.698e-01,5.132e-04
4.730e-01,6.175e-04
4.761e-01,7.414e-04
4.793e-01,8.885e-04
4.825e-01,1.063e-03
4.857e-01,1.268e-03
4.889e-01,1.511e-03
4.921e-01,1.796e-03
4.952e-01,2.131e-03
4.984e-01,2.524e-03
5.016e-01,2.983e-03
5.048e-01,3.520e-03
5.080e-01,4.145e-03
5.112e-01,4.872e-03
5.144e-01,5.716e-03
5.175e-01,6.693e-03
5.207e-01,7.824e-03
5.239e-01,9.129e-03
5.271e-01,1.063e-02
5.303e-01,1.236e-02
5.335e-01,1.434e-02
5.366e-01,1.662e-02
5.398e-01,1.921e-02
5.430e-01,2.218e-02
5.462e-01,2.556e-02
5.494e-01,2.940e-02
5.526e-01,3.376e-02
5.558e-01,3.869e-02
5.589e-01,4.428e-02
5.621e-01,5.058e-02
5.653e-01,5.768e-02
5.685e-01,6.566e-02
5.717e-01,7.462e-02
5.749e-01,8.466e-02
5.780e-01,9.588e-02
5.812e-01,1.084e-01
5.844e-01,1.224e-01
5.876e-01,1.379e-01
5.908e-01,1.551e-01
5.940e-01,1.742e-01
5.972e-01,1.953e-01
6.003e-01,2.186e-01
6.035e-01,2.443e-01
6.067e-01,2.725e-01
6.099e-01,3.035e-01
6.131e-01,3.374e-01
6.163e-01,3.745e-01
6.194e-01,4.149e-01
6.226e-01,4.590e-01
6.258e-01,5.068e-01
6.290e-01,5.587e-01
6.322e-01,6.149e-01
6.354e-01,6.756e-01
6.386e-01,7.410e-01
6.417e-01,8.114e-01
6.449e-01,8.869e-01
6.481e-01,9.677e-01
6.513e-01,1.054e+00
6.545e-01,1.146e+00
6.577e-01,1.244e+00
6.608e-01,1.348e+00
6.640e-01,1.458e+00
6.672e-01,1.575e+00
6.704e-01,1.698e+00
6.736e-01,1.826e+00
6.768e-01,1.962e+00
6.800e-01,2.103e+00
6.831e-01,2.251e+00
6.863e-01,2.404e+00
6.895e-01,2.563e+00
6.927e-01,2.728e+00
6.959e-01,2.897e+00
6.991e-01,3.072e+00
7.022e-01,3.250e+00
7.054e-01,3.433e+00
7.086e-01,3.618e+00
7.118e-01,3.806e+00
7.150e-01,3.996e+00
7.182e-01,4.187e+00
7.214e-01,4.379e+00
7.245e-01,4.569e+00
7.277e-01,4.758e+00
7.309e-01,4.944e+00
7.341e-01,5.127e+00
7.373e-01,5.304e+00
7.405e-01,5.476e+00
7.436e-01,5.641e+00
7.468e-01,5.798e+00
7.500e-01,5.945e+00
7.532e-01,6.082e+00
7.564e-01,6.207e+00
7.596e-01,6.320e+00
7.628e-01,6.419e+00
7.659e-01,6.503e+00
7.691e-01,6.572e+00
7.723e-01,6.624e+00
7.755e-01,6.659e+00
7.787e-01,6.676e+00
7.819e-01,6.675e+00
7.850e-01,6.655e+00
7.882e-01,6.617e+00
7.914e-01,6.559e+00
7.946e-01,6.482e+00
7.978e-01,6.387e+00
8.010e-01,6.273e+00
8.042e-01,6.142e+00
8.073e-01,5.993e+00
8.105e-01,5.828e+00
8.137e-01,5.648e+00
8.169e-01,5.455e+00
8.201e-01,5.248e+00
8.233e-01,5.030e+00
8.264e-01,4.803e+00
8.296e-01,4.567e+00
8.328e-01,4.325e+00
8.360e-01,4.079e+00
8.392e-01,3.829e+00
8.424e-01,3.579e+00
8.455e-01,3.329e+00
8.487e-01,3.081e+00
8.519e-01,2.837e+00
8.551e-01,2.599e+00
8.583e-01,2.368e+00
8.615e-01,2.145e+00
8.647e-01,1.931e+00
8.678e-01,1.728e+00
8.710e-01,1.537e+00
8.742e-01,1.357e+00
8.774e-01,1.190e+00
8.806e-01,1.036e+00
8.838e-01,8.944e-01
8.869e-01,7.660e-01
8.901e-01,6.505e-01
8.933e-01,5.473e-01
8.965e-01,4.561e-01
8.997e-01,3.762e-01
9.029e-01,3.070e-01
9.061e-01,2.476e-01
9.092e-01,1.973e-01
9.124e-01,1.551e-01
9.156e-01,1.203e-01
9.188e-01,9.184e-02
9.220e-01,6.900e-02
9.252e-01,5.093e-02
9.283e-01,3.689e-02
9.315e-01,2.616e-02
9.347e-01,1.814e-02
9.379e-01,1.227e-02
9.411e-01,8.069e-03
9.443e-01,5.148e-03
9.475e-01,3.174e-03
9.506e-01,1.884e-03
9.538e-01,1.070e-03
9.570e-01,5.787e-04
9.602e-01,2.955e-04
9.634e-01,1.412e-04
9.666e-01,6.236e-05
9.697e-01,2.506e-05
9.729e-01,8.974e-06
9.761e-01,2.783e-06
9.793e-01,7.168e-07
9.825e-01,1.442e-07
9.857e-01,2.050e-08
9.889e-01,1.728e-09
9.920e-01,6.054e-11
9.952e-01,3.512e-13
9.984e-01,4.753e-18
