transmittance,probability_density
5.789e-01,1.242e-09
5.810e-01,1.577e-09
5.831e-01,2.002e-09
5.852e-01,2.537e-09
5.873e-01,3.212e-09
5.894e-01,4.061e-09
5.915e-01,5.129e-09
5.937e-01,6.471e-09
5.958e-01,8.154e-09
5.979e-01,1.026e-08
6.000e-01,1.290e-08
6.021e-01,1.620e-08
6.042e-01,2.032e-08
6.063e-01,2.546e-08
6.084e-01,3.187e-08
6.105e-01,3.984e-08
6.126e-01,4.975e-08
6.148e-01,6.205e-08
6.169e-01,7.731e-08
6.190e-01,9.622e-08
6.211e-01,1.196e-07
6.232e-01,1.485e-07
6.253e-01,1.843e-07
6.274e-01,2.283e-07
6.295e-01,2.826e-07
6.316e-01,3.494e-07
6.338e-01,4.315e-07
6.359e-01,5.323e-07
6.380e-01,6.560e-07
6.401e-01,8.076e-07
6.422e-01,9.931e-07
6.443e-01,1.220e-06
6.464e-01,1.497e-06
6.485e-01,1.835e-06
6.506e-01,2.247e-06
6.528e-01,2.748e-06
6.549e-01,3.358e-06
6.570e-01,4.099e-06
6.591e-01,4.998e-06
6.612e-01,6.087e-06
6.633e-01,7.406e-06
6.654e-01,9.002e-06
6.675e-01,1.093e-05
6.696e-01,1.326e-05
6.718e-01,1.606e-05
6.739e-01,1.944e-05
6.760e-01,2.350e-05
6.781e-01,2.839e-05
6.802e-01,3.425e-05
6.823e-01,4.128e-05
6.844e-01,4.970e-05
6.865e-01,5.978e-05
6.886e-01,7.182e-05
6.908e-01,8.620e-05
6.929e-01,1.034e-04
6.950e-01,1.238e-04
6.971e-01,1.481e-04
6.992e-01,1.770e-04
7.013e-01,2.113e-04
7.034e-01,2.521e-04
7.055e-01,3.003e-04
7.076e-01,3.574e-04
7.097e-01,4.250e-04
7.119e-01,5.047e-04
7.140e-01,5.988e-04
7.161e-01,7.097e-04
7.182e-01,8.403e-04
7.203e-01,9.937e-04
7.224e-01,1.174e-03
7.245e-01,1.385e-03
7.266e-01,1.633e-03
7.287e-01,1.923e-03
7.309e-01,2.262e-03
7.330e-01,2.659e-03
7.351e-01,3.121e-03
7.372e-01,3.659e-03
7.393e-01,4.285e-03
7.414e-01,5.014e-03
7.435e-01,5.859e-03
7.456e-01,6.840e-03
7.477e-01,7.976e-03
7.499e-01,9.290e-03
7.520e-01,1.081e-02
7.541e-01,1.256e-02
7.562e-01,1.458e-02
7.583e-01,1.691e-02
7.604e-01,1.958e-02
7.625e-01,2.266e-02
7.646e-01,2.618e-02
7.667e-01,3.022e-02
7.689e-01,3.484e-02
7.710e-01,4.012e-02
7.731e-01,4.614e-02
7.752e-01,5.300e-02
7.773e-01,6.081e-02
7.794e-01,6.969e-02
7.815e-01,7.976e-02
7.836e-01,9.118e-02
7.857e-01,1.041e-01
7.879e-01,1.187e-01
7.900e-01,1.352e-01
7.921e-01,1.538e-01
7.942e-01,1.747e-01
7.963e-01,1.982e-01
7.984e-01,2.245e-01
8.005e-01,2.541e-01
8.026e-01,2.871e-01
8.047e-01,3.239e-01
8.069e-01,3.650e-01
8.090e-01,4.108e-01
8.111e-01,4.616e-01
8.132e-01,5.180e-01
8.153e-01,5.804e-01
8.174e-01,6.494e-01
8.195e-01,7.256e-01
8.216e-01,8.094e-01
8.237e-01,9.016e-01
8.258e-01,1.003e+00
8.280e-01,1.113e+00
8.301e-01,1.234e+00
8.322e-01,1.366e+00
8.343e-01,1.510e+00
8.364e-01,1.666e+00
8.385e-01,1.834e+00
8.406e-01,2.017e+00
8.427e-01,2.213e+00
8.448e-01,2.425e+00
8.470e-01,2.652e+00
8.491e-01,2.895e+00
8.512e-01,3.153e+00
8.533e-01,3.429e+00
8.554e-01,3.721e+00
8.575e-01,4.030e+00
8.596e-01,4.356e+00
8.617e-01,4.698e+00
8.638e-01,5.056e+00
8.660e-01,5.429e+00
8.681e-01,5.817e+00
8.702e-01,6.218e+00
8.723e-01,6.631e+00
8.744e-01,7.054e+00
8.765e-01,7.486e+00
8.786e-01,7.923e+00
8.807e-01,8.364e+00
8.828e-01,8.805e+00
8.850e-01,9.244e+00
8.871e-01,9.677e+00
8.892e-01,1.010e+01
8.913e-01,1.051e+01
8.934e-01,1.090e+01
8.955e-01,1.127e+01
8.976e-01,1.161e+01
8.997e-01,1.192e+01
9.018e-01,1.219e+01
9.040e-01,1.243e+01
9.061e-01,1.262e+01
9.082e-01,1.275e+01
9.103e-01,1.284e+01
9.124e-01,1.287e+01
9.145e-01,1.284e+01
9.166e-01,1.274e+01
9.187e-01,1.259e+01
9.208e-01,1.237e+01
9.230e-01,1.208e+01
9.251e-01,1.173e+01
9.272e-01,1.133e+01
9.293e-01,1.086e+01
9.314e-01,1.035e+01
9.335e-01,9.784e+00
9.356e-01,9.180e+00
9.377e-01,8.543e+00
9.398e-01,7.881e+00
9.420e-01,7.202e+00
9.441e-01,6.516e+00
9.462e-01,5.833e+00
9.483e-01,5.161e+00
9.504e-01,4.509e+00
9.525e-01,3.887e+00
9.546e-01,3.301e+00
9.567e-01,2.759e+00
9.588e-01,2.266e+00
9.609e-01,1.824e+00
9.631e-01,1.437e+00
9.652e-01,1.105e+00
9.673e-01,8.274e-01
9.694e-01,6.005e-01
9.715e-01,4.208e-01
9.736e-01,2.832e-01
9.757e-01,1.818e-01
9.778e-01,1.104e-01
9.799e-01,6.274e-02
9.821e-01,3.285e-02
9.842e-01,1.554e-02
9.863e-01,6.446e-03
9.884e-01,2.245e-03
9.905e-01,6.120e-04
9.926e-01,1.153e-04
9.947e-01,1.168e-05
9.968e-01,3.323e-07
9.989e-01,1.307e-10
