transmittance,probability_density
2.833e-01,3.090e-07
2.868e-01,4.252e-07
2.904e-01,5.822e-07
2.940e-01,7.932e-07
2.976e-01,1.075e-06
3.012e-01,1.451e-06
3.048e-01,1.950e-06
3.084e-01,2.607e-06
3.120e-01,3.471e-06
3.156e-01,4.601e-06
3.192e-01,6.074e-06
3.228e-01,7.984e-06
3.264e-01,1.045e-05
3.300e-01,1.363e-05
3.335e-01,1.770e-05
3.371e-01,2.290e-05
3.407e-01,2.952e-05
3.443e-01,3.791e-05
3.479e-01,4.851e-05
3.515e-01,6.185e-05
3.551e-01,7.857e-05
3.587e-01,9.948e-05
3.623e-01,1.255e-04
3.659e-01,1.578e-04
3.695e-01,1.978e-04
3.731e-01,2.472e-04
3.767e-01,3.078e-04
3.803e-01,3.821e-04
3.838e-01,4.729e-04
3.874e-01,5.835e-04
3.910e-01,7.177e-04
3.946e-01,8.803e-04
3.982e-01,1.076e-03
4.018e-01,1.313e-03
4.054e-01,1.596e-03
4.090e-01,1.935e-03
4.126e-01,2.340e-03
4.162e-01,2.821e-03
4.198e-01,3.393e-03
4.234e-01,4.069e-03
4.270e-01,4.867e-03
4.306e-01,5.807e-03
4.341e-01,6.910e-03
4.377e-01,8.202e-03
4.413e-01,9.711e-03
4.449e-01,1.147e-02
4.485e-01,1.351e-02
4.521e-01,1.588e-02
4.557e-01,1.861e-02
4.593e-01,2.177e-02
4.629e-01,2.540e-02
4.665e-01,2.956e-02
4.701e-01,3.433e-02
4.737e-01,3.978e-02
4.773e-01,4.598e-02
4.809e-01,5.303e-02
4.844e-01,6.102e-02
4.880e-01,7.006e-02
4.916e-01,8.025e-02
4.952e-01,9.173e-02
4.988e-01,1.046e-01
5.024e-01,1.191e-01
5.060e-01,1.352e-01
5.096e-01,1.532e-01
5.132e-01,1.732e-01
5.168e-01,1.954e-01
5.204e-01,2.200e-01
5.240e-01,2.472e-01
5.276e-01,2.771e-01
5.311e-01,3.100e-01
5.347e-01,3.461e-01
5.383e-01,3.856e-01
5.419e-01,4.287e-01
5.455e-01,4.756e-01
5.491e-01,5.266e-01
5.527e-01,5.818e-01
5.563e-01,6.415e-01
5.599e-01,7.059e-01
5.635e-01,7.752e-01
5.671e-01,8.495e-01
5.707e-01,9.290e-01
5.743e-01,1.014e+00
5.779e-01,1.104e+00
5.814e-01,1.200e+00
5.850e-01,1.302e+00
5.886e-01,1.410e+00
5.922e-01,1.523e+00
5.958e-01,1.642e+00
5.994e-01,1.766e+00
6.030e-01,1.896e+00
6.066e-01,2.032e+00
6.102e-01,2.172e+00
6.138e-01,2.318e+00
6.174e-01,2.468e+00
6.210e-01,2.623e+00
6.246e-01,2.781e+00
6.282e-01,2.943e+00
6.317e-01,3.107e+00
6.353e-01,3.274e+00
6.389e-01,3.442e+00
6.425e-01,3.611e+00
6.461e-01,3.780e+00
6.497e-01,3.949e+00
6.533e-01,4.116e+00
6.569e-01,4.280e+00
6.605e-01,4.441e+00
6.641e-01,4.598e+00
6.677e-01,4.750e+00
6.713e-01,4.895e+00
6.749e-01,5.034e+00
6.785e-01,5.164e+00
6.820e-01,5.285e+00
6.856e-01,5.396e+00
6.892e-01,5.496e+00
6.928e-01,5.584e+00
6.964e-01,5.660e+00
7.000e-01,5.722e+00
7.036e-01,5.770e+00
7.072e-01,5.804e+00
7.108e-01,5.823e+00
7.144e-01,5.827e+00
7.180e-01,5.815e+00
7.216e-01,5.787e+00
7.252e-01,5.743e+00
7.287e-01,5.684e+00
7.323e-01,5.610e+00
7.359e-01,5.520e+00
7.395e-01,5.415e+00
7.431e-01,5.297e+00
7.467e-01,5.165e+00
7.503e-01,5.021e+00
7.539e-01,4.865e+00
7.575e-01,4.699e+00
7.611e-01,4.523e+00
7.647e-01,4.339e+00
7.683e-01,4.148e+00
7.719e-01,3.951e+00
7.755e-01,3.750e+00
7.790e-01,3.546e+00
7.826e-01,3.340e+00
7.862e-01,3.134e+00
7.898e-01,2.928e+00
7.934e-01,2.725e+00
7.970e-01,2.524e+00
8.006e-01,2.329e+00
8.042e-01,2.138e+00
8.078e-01,1.955e+00
8.114e-01,1.778e+00
8.150e-01,1.609e+00
8.186e-01,1.449e+00
8.222e-01,1.298e+00
8.258e-01,1.156e+00
8.293e-01,1.024e+00
8.329e-01,9.011e-01
8.365e-01,7.884e-01
8.401e-01,6.854e-01
8.437e-01,5.919e-01
8.473e-01,5.077e-01
8.509e-01,4.322e-01
8.545e-01,3.652e-01
8.581e-01,3.062e-01
8.617e-01,2.546e-01
8.653e-01,2.098e-01
8.689e-01,1.713e-01
8.725e-01,1.386e-01
8.761e-01,1.110e-01
8.796e-01,8.792e-02
8.832e-01,6.887e-02
8.868e-01,5.330e-02
8.904e-01,4.074e-02
8.940e-01,3.071e-02
8.976e-01,2.282e-02
9.012e-01,1.670e-02
9.048e-01,1.202e-02
9.084e-01,8.502e-03
9.120e-01,5.898e-03
9.156e-01,4.008e-03
9.192e-01,2.664e-03
9.228e-01,1.727e-03
9.263e-01,1.091e-03
9.299e-01,6.687e-04
9.335e-01,3.970e-04
9.371e-01,2.274e-04
9.407e-01,1.251e-04
9.443e-01,6.580e-05
9.479e-01,3.289e-05
9.515e-01,1.551e-05
9.551e-01,6.840e-06
9.587e-01,2.790e-06
9.623e-01,1.037e-06
9.659e-01,3.452e-07
9.695e-01,1.004e-07
9.731e-01,2.463e-08
9.766e-01,4.862e-09
9.802e-01,7.177e-10
9.838e-01,7.048e-11
9.874e-01,3.745e-12
9.910e-01,7.092e-14
9.946e-01,1.624e-16
9.982e-01,3.002e-22
