transmittance,probability_density
6.073e-01,2.513e-12
6.092e-01,3.310e-12
6.112e-01,4.356e-12
6.132e-01,5.726e-12
6.151e-01,7.518e-12
6.171e-01,9.859e-12
6.191e-01,1.291e-11
6.210e-01,1.690e-11
6.230e-01,2.208e-11
6.250e-01,2.883e-11
6.269e-01,3.760e-11
6.289e-01,4.897e-11
6.309e-01,6.372e-11
6.328e-01,8.281e-11
6.348e-01,1.075e-10
6.368e-01,1.394e-10
6.388e-01,1.806e-10
6.407e-01,2.337e-10
6.427e-01,3.021e-10
6.447e-01,3.900e-10
6.466e-01,5.030e-10
6.486e-01,6.481e-10
6.506e-01,8.341e-10
6.525e-01,1.072e-09
6.545e-01,1.377e-09
6.565e-01,1.767e-09
6.584e-01,2.264e-09
6.604e-01,2.898e-09
6.624e-01,3.706e-09
6.643e-01,4.733e-09
6.663e-01,6.040e-09
6.683e-01,7.699e-09
6.703e-01,9.804e-09
6.722e-01,1.247e-08
6.742e-01,1.585e-08
6.762e-01,2.012e-08
6.781e-01,2.551e-08
6.801e-01,3.231e-08
6.821e-01,4.089e-08
6.840e-01,5.168e-08
6.860e-01,6.526e-08
6.880e-01,8.233e-08
6.899e-01,1.037e-07
6.919e-01,1.306e-07
6.939e-01,1.642e-07
6.958e-01,2.063e-07
6.978e-01,2.589e-07
6.998e-01,3.246e-07
7.018e-01,4.065e-07
7.037e-01,5.086e-07
7.057e-01,6.357e-07
7.077e-01,7.937e-07
7.096e-01,9.899e-07
7.116e-01,1.233e-06
7.136e-01,1.535e-06
7.155e-01,1.909e-06
7.175e-01,2.371e-06
7.195e-01,2.942e-06
7.214e-01,3.647e-06
7.234e-01,4.516e-06
7.254e-01,5.586e-06
7.273e-01,6.903e-06
7.293e-01,8.521e-06
7.313e-01,1.051e-05
7.332e-01,1.295e-05
7.352e-01,1.593e-05
7.372e-01,1.959e-05
7.392e-01,2.405e-05
7.411e-01,2.951e-05
7.431e-01,3.616e-05
7.451e-01,4.427e-05
7.470e-01,5.414e-05
7.490e-01,6.615e-05
7.510e-01,8.073e-05
7.529e-01,9.841e-05
7.549e-01,1.199e-04
7.569e-01,1.458e-04
7.588e-01,1.772e-04
7.608e-01,2.151e-04
7.628e-01,2.608e-04
7.647e-01,3.159e-04
7.667e-01,3.823e-04
7.687e-01,4.621e-04
7.707e-01,5.579e-04
7.726e-01,6.729e-04
7.746e-01,8.107e-04
7.766e-01,9.756e-04
7.785e-01,1.173e-03
7.805e-01,1.408e-03
7.825e-01,1.689e-03
7.844e-01,2.023e-03
7.864e-01,2.421e-03
7.884e-01,2.894e-03
7.903e-01,3.455e-03
7.923e-01,4.121e-03
7.943e-01,4.908e-03
7.962e-01,5.840e-03
7.982e-01,6.940e-03
8.002e-01,8.237e-03
8.022e-01,9.766e-03
8.041e-01,1.156e-02
8.061e-01,1.368e-02
8.081e-01,1.615e-02
8.100e-01,1.906e-02
8.120e-01,2.245e-02
8.140e-01,2.642e-02
8.159e-01,3.105e-02
8.179e-01,3.645e-02
8.199e-01,4.273e-02
8.218e-01,5.002e-02
8.238e-01,5.848e-02
8.258e-01,6.828e-02
8.277e-01,7.961e-02
8.297e-01,9.269e-02
8.317e-01,1.078e-01
8.337e-01,1.251e-01
8.356e-01,1.451e-01
8.376e-01,1.680e-01
8.396e-01,1.942e-01
8.415e-01,2.241e-01
8.435e-01,2.583e-01
8.455e-01,2.973e-01
8.474e-01,3.416e-01
8.494e-01,3.919e-01
8.514e-01,4.489e-01
8.533e-01,5.133e-01
8.553e-01,5.859e-01
8.573e-01,6.677e-01
8.592e-01,7.597e-01
8.612e-01,8.628e-01
8.632e-01,9.781e-01
8.651e-01,1.107e+00
8.671e-01,1.250e+00
8.691e-01,1.409e+00
8.711e-01,1.586e+00
8.730e-01,1.780e+00
8.750e-01,1.995e+00
8.770e-01,2.231e+00
8.789e-01,2.490e+00
8.809e-01,2.773e+00
8.829e-01,3.080e+00
8.848e-01,3.415e+00
8.868e-01,3.776e+00
8.888e-01,4.166e+00
8.907e-01,4.585e+00
8.927e-01,5.032e+00
8.947e-01,5.509e+00
8.966e-01,6.015e+00
8.986e-01,6.549e+00
9.006e-01,7.110e+00
9.026e-01,7.697e+00
9.045e-01,8.305e+00
9.065e-01,8.934e+00
9.085e-01,9.578e+00
9.104e-01,1.023e+01
9.124e-01,1.090e+01
9.144e-01,1.156e+01
9.163e-01,1.221e+01
9.183e-01,1.285e+01
9.203e-01,1.347e+01
9.222e-01,1.406e+01
9.242e-01,1.461e+01
9.262e-01,1.510e+01
9.281e-01,1.553e+01
9.301e-01,1.589e+01
9.321e-01,1.618e+01
9.341e-01,1.637e+01
9.360e-01,1.646e+01
9.380e-01,1.644e+01
9.400e-01,1.631e+01
9.419e-01,1.606e+01
9.439e-01,1.570e+01
9.459e-01,1.521e+01
9.478e-01,1.461e+01
9.498e-01,1.390e+01
9.518e-01,1.309e+01
9.537e-01,1.219e+01
9.557e-01,1.121e+01
9.577e-01,1.018e+01
9.596e-01,9.116e+00
9.616e-01,8.032e+00
9.636e-01,6.956e+00
9.655e-01,5.910e+00
9.675e-01,4.914e+00
9.695e-01,3.989e+00
9.715e-01,3.152e+00
9.734e-01,2.414e+00
9.754e-01,1.783e+00
9.774e-01,1.264e+00
9.793e-01,8.530e-01
9.813e-01,5.426e-01
9.833e-01,3.212e-01
9.852e-01,1.738e-01
9.872e-01,8.373e-02
9.892e-01,3.457e-02
9.911e-01,1.150e-02
9.931e-01,2.760e-03
9.951e-01,3.830e-04
9.970e-01,1.732e-05
9.990e-01,1.789e-08
