transmittance,probability_density
7.214e-01,2.740e-16
7.228e-01,3.745e-16
7.242e-01,5.114e-16
7.256e-01,6.978e-16
7.270e-01,9.513e-16
7.284e-01,1.296e-15
7.298e-01,1.764e-15
7.312e-01,2.399e-15
7.326e-01,3.261e-15
7.340e-01,4.428e-15
7.354e-01,6.007e-15
7.368e-01,8.144e-15
7.382e-01,1.103e-14
7.396e-01,1.493e-14
7.410e-01,2.020e-14
7.424e-01,2.729e-14
7.438e-01,3.686e-14
7.452e-01,4.973e-14
7.466e-01,6.704e-14
7.480e-01,9.031e-14
7.494e-01,1.216e-13
7.507e-01,1.635e-13
7.521e-01,2.197e-13
7.535e-01,2.950e-13
7.549e-01,3.959e-13
7.563e-01,5.307e-13
7.577e-01,7.109e-13
7.591e-01,9.516e-13
7.605e-01,1.273e-12
7.619e-01,1.701e-12
7.633e-01,2.271e-12
7.647e-01,3.030e-12
7.661e-01,4.040e-12
7.675e-01,5.382e-12
7.689e-01,7.164e-12
7.703e-01,9.528e-12
7.717e-01,1.266e-11
7.731e-01,1.681e-11
7.745e-01,2.231e-11
7.759e-01,2.958e-11
7.773e-01,3.918e-11
7.787e-01,5.186e-11
7.801e-01,6.859e-11
7.815e-01,9.065e-11
7.829e-01,1.197e-10
7.843e-01,1.579e-10
7.857e-01,2.082e-10
7.871e-01,2.742e-10
7.885e-01,3.610e-10
7.898e-01,4.747e-10
7.912e-01,6.238e-10
7.926e-01,8.190e-10
7.940e-01,1.074e-09
7.954e-01,1.408e-09
7.968e-01,1.845e-09
7.982e-01,2.414e-09
7.996e-01,3.157e-09
8.010e-01,4.125e-09
8.024e-01,5.384e-09
8.038e-01,7.023e-09
8.052e-01,9.153e-09
8.066e-01,1.192e-08
8.080e-01,1.551e-08
8.094e-01,2.016e-08
8.108e-01,2.619e-08
8.122e-01,3.399e-08
8.136e-01,4.407e-08
8.150e-01,5.710e-08
8.164e-01,7.391e-08
8.178e-01,9.560e-08
8.192e-01,1.235e-07
8.206e-01,1.595e-07
8.220e-01,2.058e-07
8.234e-01,2.652e-07
8.248e-01,3.416e-07
8.262e-01,4.395e-07
8.275e-01,5.649e-07
8.289e-01,7.256e-07
8.303e-01,9.311e-07
8.317e-01,1.194e-06
8.331e-01,1.529e-06
8.345e-01,1.957e-06
8.359e-01,2.502e-06
8.373e-01,3.196e-06
8.387e-01,4.079e-06
8.401e-01,5.200e-06
8.415e-01,6.624e-06
8.429e-01,8.430e-06
8.443e-01,1.072e-05
8.457e-01,1.361e-05
8.471e-01,1.728e-05
8.485e-01,2.190e-05
8.499e-01,2.774e-05
8.513e-01,3.509e-05
8.527e-01,4.436e-05
8.541e-01,5.601e-05
8.555e-01,7.066e-05
8.569e-01,8.904e-05
8.583e-01,1.121e-04
8.597e-01,1.410e-04
8.611e-01,1.771e-04
8.625e-01,2.222e-04
8.639e-01,2.785e-04
8.653e-01,3.488e-04
8.666e-01,4.363e-04
8.680e-01,5.451e-04
8.694e-01,6.803e-04
8.708e-01,8.481e-04
8.722e-01,1.056e-03
8.736e-01,1.313e-03
8.750e-01,1.632e-03
8.764e-01,2.025e-03
8.778e-01,2.509e-03
8.792e-01,3.106e-03
8.806e-01,3.840e-03
8.820e-01,4.741e-03
8.834e-01,5.847e-03
8.848e-01,7.201e-03
8.862e-01,8.858e-03
8.876e-01,1.088e-02
8.890e-01,1.335e-02
8.904e-01,1.635e-02
8.918e-01,2.000e-02
8.932e-01,2.444e-02
8.946e-01,2.981e-02
8.960e-01,3.631e-02
8.974e-01,4.416e-02
8.988e-01,5.363e-02
9.002e-01,6.502e-02
9.016e-01,7.872e-02
9.030e-01,9.514e-02
9.043e-01,1.148e-01
9.057e-01,1.383e-01
9.071e-01,1.663e-01
9.085e-01,1.997e-01
9.099e-01,2.392e-01
9.113e-01,2.862e-01
9.127e-01,3.417e-01
9.141e-01,4.071e-01
9.155e-01,4.842e-01
9.169e-01,5.746e-01
9.183e-01,6.806e-01
9.197e-01,8.043e-01
9.211e-01,9.485e-01
9.225e-01,1.116e+00
9.239e-01,1.310e+00
9.253e-01,1.534e+00
9.267e-01,1.792e+00
9.281e-01,2.088e+00
9.295e-01,2.427e+00
9.309e-01,2.813e+00
9.323e-01,3.252e+00
9.337e-01,3.747e+00
9.351e-01,4.305e+00
9.365e-01,4.931e+00
9.379e-01,5.630e+00
9.393e-01,6.406e+00
9.407e-01,7.264e+00
9.421e-01,8.206e+00
9.434e-01,9.235e+00
9.448e-01,1.035e+01
9.462e-01,1.156e+01
9.476e-01,1.284e+01
9.490e-01,1.421e+01
9.504e-01,1.565e+01
9.518e-01,1.714e+01
9.532e-01,1.868e+01
9.546e-01,2.024e+01
9.560e-01,2.180e+01
9.574e-01,2.333e+01
9.588e-01,2.480e+01
9.602e-01,2.618e+01
9.616e-01,2.742e+01
9.630e-01,2.849e+01
9.644e-01,2.934e+01
9.658e-01,2.994e+01
9.672e-01,3.023e+01
9.686e-01,3.020e+01
9.700e-01,2.980e+01
9.714e-01,2.902e+01
9.728e-01,2.786e+01
9.742e-01,2.633e+01
9.756e-01,2.444e+01
9.770e-01,2.225e+01
9.784e-01,1.981e+01
9.798e-01,1.721e+01
9.811e-01,1.453e+01
9.825e-01,1.187e+01
9.839e-01,9.329e+00
9.853e-01,7.012e+00
9.867e-01,4.993e+00
9.881e-01,3.328e+00
9.895e-01,2.042e+00
9.909e-01,1.127e+00
9.923e-01,5.399e-01
9.937e-01,2.121e-01
9.951e-01,6.177e-02
9.965e-01,1.089e-02
9.979e-01,6.859e-04
9.993e-01,1.350e-06
