transmittance,probability_density
6.656e-01,3.756e-14
6.672e-01,5.025e-14
6.689e-01,6.716e-14
6.706e-01,8.967e-14
6.723e-01,1.196e-13
6.739e-01,1.594e-13
6.756e-01,2.122e-13
6.773e-01,2.823e-13
6.790e-01,3.752e-13
6.807e-01,4.981e-13
6.823e-01,6.607e-13
6.840e-01,8.755e-13
6.857e-01,1.159e-12
6.874e-01,1.533e-12
6.890e-01,2.026e-12
6.907e-01,2.675e-12
6.924e-01,3.528e-12
6.941e-01,4.649e-12
6.957e-01,6.120e-12
6.974e-01,8.050e-12
6.991e-01,1.058e-11
7.008e-01,1.389e-11
7.024e-01,1.822e-11
7.041e-01,2.387e-11
7.058e-01,3.126e-11
7.075e-01,4.088e-11
7.092e-01,5.343e-11
7.108e-01,6.976e-11
7.125e-01,9.101e-11
7.142e-01,1.186e-10
7.159e-01,1.544e-10
7.175e-01,2.009e-10
7.192e-01,2.611e-10
7.209e-01,3.391e-10
7.226e-01,4.399e-10
7.242e-01,5.703e-10
7.259e-01,7.385e-10
7.276e-01,9.555e-10
7.293e-01,1.235e-09
7.309e-01,1.595e-09
7.326e-01,2.058e-09
7.343e-01,2.654e-09
7.360e-01,3.418e-09
7.376e-01,4.398e-09
7.393e-01,5.654e-09
7.410e-01,7.263e-09
7.427e-01,9.321e-09
7.444e-01,1.195e-08
7.460e-01,1.531e-08
7.477e-01,1.959e-08
7.494e-01,2.505e-08
7.511e-01,3.201e-08
7.527e-01,4.085e-08
7.544e-01,5.209e-08
7.561e-01,6.637e-08
7.578e-01,8.448e-08
7.594e-01,1.074e-07
7.611e-01,1.365e-07
7.628e-01,1.733e-07
7.645e-01,2.197e-07
7.661e-01,2.784e-07
7.678e-01,3.524e-07
7.695e-01,4.457e-07
7.712e-01,5.632e-07
7.729e-01,7.109e-07
7.745e-01,8.966e-07
7.762e-01,1.130e-06
7.779e-01,1.422e-06
7.796e-01,1.789e-06
7.812e-01,2.247e-06
7.829e-01,2.821e-06
7.846e-01,3.538e-06
7.863e-01,4.433e-06
7.879e-01,5.548e-06
7.896e-01,6.938e-06
7.913e-01,8.668e-06
7.930e-01,1.082e-05
7.946e-01,1.349e-05
7.963e-01,1.680e-05
7.980e-01,2.091e-05
7.997e-01,2.600e-05
8.014e-01,3.229e-05
8.030e-01,4.007e-05
8.047e-01,4.967e-05
8.064e-01,6.151e-05
8.081e-01,7.609e-05
8.097e-01,9.403e-05
8.114e-01,1.161e-04
8.131e-01,1.432e-04
8.148e-01,1.764e-04
8.164e-01,2.171e-04
8.181e-01,2.669e-04
8.198e-01,3.279e-04
8.215e-01,4.023e-04
8.231e-01,4.930e-04
8.248e-01,6.036e-04
8.265e-01,7.382e-04
8.282e-01,9.018e-04
8.298e-01,1.100e-03
8.315e-01,1.341e-03
8.332e-01,1.633e-03
8.349e-01,1.986e-03
8.366e-01,2.413e-03
8.382e-01,2.928e-03
8.399e-01,3.549e-03
8.416e-01,4.296e-03
8.433e-01,5.195e-03
8.449e-01,6.274e-03
8.466e-01,7.568e-03
8.483e-01,9.118e-03
8.500e-01,1.097e-02
8.516e-01,1.319e-02
8.533e-01,1.583e-02
8.550e-01,1.897e-02
8.567e-01,2.271e-02
8.583e-01,2.715e-02
8.600e-01,3.242e-02
8.617e-01,3.866e-02
8.634e-01,4.604e-02
8.651e-01,5.474e-02
8.667e-01,6.500e-02
8.684e-01,7.707e-02
8.701e-01,9.125e-02
8.718e-01,1.079e-01
8.734e-01,1.274e-01
8.751e-01,1.501e-01
8.768e-01,1.766e-01
8.785e-01,2.076e-01
8.801e-01,2.435e-01
8.818e-01,2.851e-01
8.835e-01,3.334e-01
8.852e-01,3.891e-01
8.868e-01,4.534e-01
8.885e-01,5.273e-01
8.902e-01,6.122e-01
8.919e-01,7.094e-01
8.936e-01,8.204e-01
8.952e-01,9.470e-01
8.969e-01,1.091e+00
8.986e-01,1.254e+00
9.003e-01,1.439e+00
9.019e-01,1.647e+00
9.036e-01,1.882e+00
9.053e-01,2.145e+00
9.070e-01,2.438e+00
9.086e-01,2.766e+00
9.103e-01,3.130e+00
9.120e-01,3.532e+00
9.137e-01,3.976e+00
9.153e-01,4.464e+00
9.170e-01,4.997e+00
9.187e-01,5.578e+00
9.204e-01,6.208e+00
9.220e-01,6.887e+00
9.237e-01,7.617e+00
9.254e-01,8.395e+00
9.271e-01,9.221e+00
9.288e-01,1.009e+01
9.304e-01,1.100e+01
9.321e-01,1.195e+01
9.338e-01,1.292e+01
9.355e-01,1.392e+01
9.371e-01,1.492e+01
9.388e-01,1.593e+01
9.405e-01,1.691e+01
9.422e-01,1.786e+01
9.438e-01,1.877e+01
9.455e-01,1.960e+01
9.472e-01,2.035e+01
9.489e-01,2.099e+01
9.505e-01,2.150e+01
9.522e-01,2.186e+01
9.539e-01,2.205e+01
9.556e-01,2.206e+01
9.573e-01,2.187e+01
9.589e-01,2.147e+01
9.606e-01,2.087e+01
9.623e-01,2.005e+01
9.640e-01,1.902e+01
9.656e-01,1.781e+01
9.673e-01,1.643e+01
9.690e-01,1.491e+01
9.707e-01,1.329e+01
9.723e-01,1.161e+01
9.740e-01,9.912e+00
9.757e-01,8.250e+00
9.774e-01,6.670e+00
9.790e-01,5.214e+00
9.807e-01,3.919e+00
9.824e-01,2.813e+00
9.841e-01,1.910e+00
9.858e-01,1.212e+00
9.874e-01,7.064e-01
9.891e-01,3.694e-01
9.908e-01,1.671e-01
9.925e-01,6.164e-02
9.941e-01,1.674e-02
9.958e-01,2.715e-03
9.975e-01,1.535e-04
9.992e-01,2.483e-07
