transmittance,probability_density
7.128e-01,2.203e-14
7.143e-01,2.938e-14
7.157e-01,3.915e-14
7.171e-01,5.212e-14
7.186e-01,6.935e-14
7.200e-01,9.218e-14
7.214e-01,1.224e-13
7.229e-01,1.625e-13
7.243e-01,2.155e-13
7.258e-01,2.856e-13
7.272e-01,3.781e-13
7.286e-01,5.002e-13
7.301e-01,6.613e-13
7.315e-01,8.735e-13
7.330e-01,1.153e-12
7.344e-01,1.520e-12
7.358e-01,2.003e-12
7.373e-01,2.638e-12
7.387e-01,3.471e-12
7.402e-01,4.562e-12
7.416e-01,5.993e-12
7.430e-01,7.866e-12
7.445e-01,1.032e-11
7.459e-01,1.352e-11
7.474e-01,1.770e-11
7.488e-01,2.316e-11
7.502e-01,3.028e-11
7.517e-01,3.955e-11
7.531e-01,5.162e-11
7.546e-01,6.733e-11
7.560e-01,8.774e-11
7.574e-01,1.143e-10
7.589e-01,1.487e-10
7.603e-01,1.933e-10
7.618e-01,2.511e-10
7.632e-01,3.259e-10
7.646e-01,4.227e-10
7.661e-01,5.477e-10
7.675e-01,7.093e-10
7.690e-01,9.177e-10
7.704e-01,1.186e-09
7.718e-01,1.533e-09
7.733e-01,1.978e-09
7.747e-01,2.551e-09
7.762e-01,3.288e-09
7.776e-01,4.234e-09
7.790e-01,5.447e-09
7.805e-01,7.003e-09
7.819e-01,8.996e-09
7.833e-01,1.155e-08
7.848e-01,1.481e-08
7.862e-01,1.897e-08
7.877e-01,2.429e-08
7.891e-01,3.108e-08
7.905e-01,3.973e-08
7.920e-01,5.074e-08
7.934e-01,6.475e-08
7.949e-01,8.256e-08
7.963e-01,1.052e-07
7.977e-01,1.339e-07
7.992e-01,1.703e-07
8.006e-01,2.164e-07
8.021e-01,2.748e-07
8.035e-01,3.487e-07
8.049e-01,4.420e-07
8.064e-01,5.598e-07
8.078e-01,7.084e-07
8.093e-01,8.956e-07
8.107e-01,1.131e-06
8.121e-01,1.428e-06
8.136e-01,1.801e-06
8.150e-01,2.269e-06
8.165e-01,2.857e-06
8.179e-01,3.593e-06
8.193e-01,4.516e-06
8.208e-01,5.670e-06
8.222e-01,7.112e-06
8.237e-01,8.914e-06
8.251e-01,1.116e-05
8.265e-01,1.396e-05
8.280e-01,1.745e-05
8.294e-01,2.179e-05
8.309e-01,2.719e-05
8.323e-01,3.389e-05
8.337e-01,4.220e-05
8.352e-01,5.250e-05
8.366e-01,6.525e-05
8.381e-01,8.103e-05
8.395e-01,1.005e-04
8.409e-01,1.246e-04
8.424e-01,1.542e-04
8.438e-01,1.907e-04
8.452e-01,2.357e-04
8.467e-01,2.909e-04
8.481e-01,3.587e-04
8.496e-01,4.419e-04
8.510e-01,5.438e-04
8.524e-01,6.685e-04
8.539e-01,8.210e-04
8.553e-01,1.007e-03
8.568e-01,1.234e-03
8.582e-01,1.511e-03
8.596e-01,1.847e-03
8.611e-01,2.256e-03
8.625e-01,2.752e-03
8.640e-01,3.354e-03
8.654e-01,4.082e-03
8.668e-01,4.963e-03
8.683e-01,6.027e-03
8.697e-01,7.311e-03
8.712e-01,8.857e-03
8.726e-01,1.072e-02
8.740e-01,1.295e-02
8.755e-01,1.563e-02
8.769e-01,1.884e-02
8.784e-01,2.268e-02
8.798e-01,2.727e-02
8.812e-01,3.275e-02
8.827e-01,3.927e-02
8.841e-01,4.702e-02
8.856e-01,5.623e-02
8.870e-01,6.714e-02
8.884e-01,8.006e-02
8.899e-01,9.532e-02
8.913e-01,1.133e-01
8.928e-01,1.345e-01
8.942e-01,1.594e-01
8.956e-01,1.886e-01
8.971e-01,2.229e-01
8.985e-01,2.629e-01
9.000e-01,3.095e-01
9.014e-01,3.638e-01
9.028e-01,4.269e-01
9.043e-01,5.001e-01
9.057e-01,5.847e-01
9.071e-01,6.824e-01
9.086e-01,7.948e-01
9.100e-01,9.239e-01
9.115e-01,1.072e+00
9.129e-01,1.241e+00
9.143e-01,1.434e+00
9.158e-01,1.653e+00
9.172e-01,1.901e+00
9.187e-01,2.182e+00
9.201e-01,2.498e+00
9.215e-01,2.852e+00
9.230e-01,3.249e+00
9.244e-01,3.692e+00
9.259e-01,4.184e+00
9.273e-01,4.728e+00
9.287e-01,5.328e+00
9.302e-01,5.986e+00
9.316e-01,6.705e+00
9.331e-01,7.486e+00
9.345e-01,8.331e+00
9.359e-01,9.240e+00
9.374e-01,1.021e+01
9.388e-01,1.124e+01
9.403e-01,1.233e+01
9.417e-01,1.347e+01
9.431e-01,1.465e+01
9.446e-01,1.587e+01
9.460e-01,1.710e+01
9.475e-01,1.834e+01
9.489e-01,1.958e+01
9.503e-01,2.078e+01
9.518e-01,2.194e+01
9.532e-01,2.302e+01
9.547e-01,2.400e+01
9.561e-01,2.485e+01
9.575e-01,2.555e+01
9.590e-01,2.607e+01
9.604e-01,2.639e+01
9.619e-01,2.648e+01
9.633e-01,2.632e+01
9.647e-01,2.590e+01
9.662e-01,2.521e+01
9.676e-01,2.425e+01
9.690e-01,2.303e+01
9.705e-01,2.157e+01
9.719e-01,1.989e+01
9.734e-01,1.803e+01
9.748e-01,1.604e+01
9.762e-01,1.398e+01
9.777e-01,1.189e+01
9.791e-01,9.854e+00
9.806e-01,7.919e+00
9.820e-01,6.145e+00
9.834e-01,4.577e+00
9.849e-01,3.249e+00
9.863e-01,2.176e+00
9.878e-01,1.358e+00
9.892e-01,7.759e-01
9.906e-01,3.957e-01
9.921e-01,1.734e-01
9.935e-01,6.143e-02
9.950e-01,1.580e-02
9.964e-01,2.372e-03
9.978e-01,1.184e-04
9.993e-01,1.442e-07
