transmittance,probability_density
7.465e-01,1.579e-17
7.478e-01,2.189e-17
7.491e-01,3.033e-17
7.504e-01,4.198e-17
7.516e-01,5.806e-17
7.529e-01,8.024e-17
7.542e-01,1.108e-16
7.554e-01,1.529e-16
7.567e-01,2.108e-16
7.580e-01,2.905e-16
7.592e-01,4.000e-16
7.605e-01,5.503e-16
7.618e-01,7.566e-16
7.631e-01,1.039e-15
7.643e-01,1.427e-15
7.656e-01,1.957e-15
7.669e-01,2.683e-15
7.681e-01,3.674e-15
7.694e-01,5.028e-15
7.707e-01,6.877e-15
7.720e-01,9.397e-15
7.732e-01,1.283e-14
7.745e-01,1.751e-14
7.758e-01,2.387e-14
7.770e-01,3.253e-14
7.783e-01,4.428e-14
7.796e-01,6.024e-14
7.808e-01,8.189e-14
7.821e-01,1.112e-13
7.834e-01,1.510e-13
7.847e-01,2.048e-13
7.859e-01,2.775e-13
7.872e-01,3.758e-13
7.885e-01,5.086e-13
7.897e-01,6.877e-13
7.910e-01,9.292e-13
7.923e-01,1.255e-12
7.936e-01,1.693e-12
7.948e-01,2.282e-12
7.961e-01,3.074e-12
7.974e-01,4.137e-12
7.986e-01,5.565e-12
7.999e-01,7.479e-12
8.012e-01,1.004e-11
8.024e-01,1.348e-11
8.037e-01,1.807e-11
8.050e-01,2.421e-11
8.063e-01,3.242e-11
8.075e-01,4.337e-11
8.088e-01,5.797e-11
8.101e-01,7.743e-11
8.113e-01,1.033e-10
8.126e-01,1.378e-10
8.139e-01,1.836e-10
8.151e-01,2.445e-10
8.164e-01,3.253e-10
8.177e-01,4.325e-10
8.190e-01,5.745e-10
8.202e-01,7.625e-10
8.215e-01,1.011e-09
8.228e-01,1.340e-09
8.240e-01,1.774e-09
8.253e-01,2.348e-09
8.266e-01,3.104e-09
8.279e-01,4.100e-09
8.291e-01,5.411e-09
8.304e-01,7.135e-09
8.317e-01,9.402e-09
8.329e-01,1.238e-08
8.342e-01,1.628e-08
8.355e-01,2.140e-08
8.367e-01,2.811e-08
8.380e-01,3.688e-08
8.393e-01,4.835e-08
8.406e-01,6.334e-08
8.418e-01,8.290e-08
8.431e-01,1.084e-07
8.444e-01,1.416e-07
8.456e-01,1.849e-07
8.469e-01,2.412e-07
8.482e-01,3.143e-07
8.495e-01,4.092e-07
8.507e-01,5.323e-07
8.520e-01,6.918e-07
8.533e-01,8.982e-07
8.545e-01,1.165e-06
8.558e-01,1.510e-06
8.571e-01,1.956e-06
8.583e-01,2.530e-06
8.596e-01,3.271e-06
8.609e-01,4.223e-06
8.622e-01,5.448e-06
8.634e-01,7.022e-06
8.647e-01,9.041e-06
8.660e-01,1.163e-05
8.672e-01,1.495e-05
8.685e-01,1.919e-05
8.698e-01,2.461e-05
8.710e-01,3.153e-05
8.723e-01,4.035e-05
8.736e-01,5.160e-05
8.749e-01,6.590e-05
8.761e-01,8.408e-05
8.774e-01,1.072e-04
8.787e-01,1.364e-04
8.799e-01,1.735e-04
8.812e-01,2.205e-04
8.825e-01,2.798e-04
8.838e-01,3.546e-04
8.850e-01,4.490e-04
8.863e-01,5.678e-04
8.876e-01,7.172e-04
8.888e-01,9.049e-04
8.901e-01,1.140e-03
8.914e-01,1.435e-03
8.926e-01,1.804e-03
8.939e-01,2.265e-03
8.952e-01,2.840e-03
8.965e-01,3.557e-03
8.977e-01,4.448e-03
8.990e-01,5.556e-03
9.003e-01,6.930e-03
9.015e-01,8.631e-03
9.028e-01,1.074e-02
9.041e-01,1.333e-02
9.054e-01,1.654e-02
9.066e-01,2.048e-02
9.079e-01,2.532e-02
9.092e-01,3.127e-02
9.104e-01,3.854e-02
9.117e-01,4.743e-02
9.130e-01,5.828e-02
9.142e-01,7.149e-02
9.155e-01,8.755e-02
9.168e-01,1.070e-01
9.181e-01,1.306e-01
9.193e-01,1.591e-01
9.206e-01,1.934e-01
9.219e-01,2.347e-01
9.231e-01,2.842e-01
9.244e-01,3.435e-01
9.257e-01,4.143e-01
9.269e-01,4.986e-01
9.282e-01,5.988e-01
9.295e-01,7.175e-01
9.308e-01,8.577e-01
9.320e-01,1.023e+00
9.333e-01,1.217e+00
9.346e-01,1.444e+00
9.358e-01,1.709e+00
9.371e-01,2.017e+00
9.384e-01,2.375e+00
9.397e-01,2.787e+00
9.409e-01,3.261e+00
9.422e-01,3.804e+00
9.435e-01,4.423e+00
9.447e-01,5.125e+00
9.460e-01,5.917e+00
9.473e-01,6.808e+00
9.485e-01,7.803e+00
9.498e-01,8.907e+00
9.511e-01,1.013e+01
9.524e-01,1.146e+01
9.536e-01,1.291e+01
9.549e-01,1.448e+01
9.562e-01,1.615e+01
9.574e-01,1.792e+01
9.587e-01,1.977e+01
9.600e-01,2.168e+01
9.613e-01,2.363e+01
9.625e-01,2.558e+01
9.638e-01,2.749e+01
9.651e-01,2.932e+01
9.663e-01,3.102e+01
9.676e-01,3.253e+01
9.689e-01,3.378e+01
9.701e-01,3.473e+01
9.714e-01,3.531e+01
9.727e-01,3.547e+01
9.740e-01,3.517e+01
9.752e-01,3.436e+01
9.765e-01,3.305e+01
9.778e-01,3.122e+01
9.790e-01,2.892e+01
9.803e-01,2.620e+01
9.816e-01,2.315e+01
9.828e-01,1.988e+01
9.841e-01,1.652e+01
9.854e-01,1.321e+01
9.867e-01,1.009e+01
9.879e-01,7.304e+00
9.892e-01,4.947e+00
9.905e-01,3.083e+00
9.917e-01,1.728e+00
9.930e-01,8.396e-01
9.943e-01,3.342e-01
9.956e-01,9.852e-02
9.968e-01,1.753e-02
9.981e-01,1.109e-03
9.994e-01,2.156e-06
