transmittance,probability_density
7.790e-01,2.977e-19
7.801e-01,4.231e-19
7.812e-01,6.008e-19
7.823e-01,8.525e-19
7.834e-01,1.209e-18
7.845e-01,1.713e-18
7.857e-01,2.425e-18
7.868e-01,3.431e-18
7.879e-01,4.852e-18
7.890e-01,6.855e-18
7.901e-01,9.679e-18
7.912e-01,1.366e-17
7.923e-01,1.925e-17
7.934e-01,2.713e-17
7.945e-01,3.819e-17
7.956e-01,5.373e-17
7.967e-01,7.554e-17
7.978e-01,1.061e-16
7.989e-01,1.490e-16
8.001e-01,2.090e-16
8.012e-01,2.930e-16
8.023e-01,4.104e-16
8.034e-01,5.745e-16
8.045e-01,8.036e-16
8.056e-01,1.123e-15
8.067e-01,1.569e-15
8.078e-01,2.190e-15
8.089e-01,3.054e-15
8.100e-01,4.257e-15
8.111e-01,5.929e-15
8.122e-01,8.251e-15
8.133e-01,1.147e-14
8.145e-01,1.595e-14
8.156e-01,2.214e-14
8.167e-01,3.073e-14
8.178e-01,4.261e-14
8.189e-01,5.903e-14
8.200e-01,8.174e-14
8.211e-01,1.131e-13
8.222e-01,1.563e-13
8.233e-01,2.160e-13
8.244e-01,2.982e-13
8.255e-01,4.113e-13
8.266e-01,5.669e-13
8.277e-01,7.808e-13
8.289e-01,1.075e-12
8.300e-01,1.478e-12
8.311e-01,2.031e-12
8.322e-01,2.789e-12
8.333e-01,3.827e-12
8.344e-01,5.247e-12
8.355e-01,7.188e-12
8.366e-01,9.840e-12
8.377e-01,1.346e-11
8.388e-01,1.840e-11
8.399e-01,2.513e-11
8.410e-01,3.429e-11
8.421e-01,4.676e-11
8.433e-01,6.371e-11
8.444e-01,8.674e-11
8.455e-01,1.180e-10
8.466e-01,1.604e-10
8.477e-01,2.178e-10
8.488e-01,2.956e-10
8.499e-01,4.009e-10
8.510e-01,5.432e-10
8.521e-01,7.353e-10
8.532e-01,9.946e-10
8.543e-01,1.344e-09
8.554e-01,1.815e-09
8.565e-01,2.449e-09
8.577e-01,3.302e-09
8.588e-01,4.448e-09
8.599e-01,5.987e-09
8.610e-01,8.050e-09
8.621e-01,1.082e-08
8.632e-01,1.452e-08
8.643e-01,1.947e-08
8.654e-01,2.609e-08
8.665e-01,3.493e-08
8.676e-01,4.673e-08
8.687e-01,6.245e-08
8.698e-01,8.339e-08
8.709e-01,1.112e-07
8.721e-01,1.483e-07
8.732e-01,1.974e-07
8.743e-01,2.626e-07
8.754e-01,3.490e-07
8.765e-01,4.634e-07
8.776e-01,6.148e-07
8.787e-01,8.147e-07
8.798e-01,1.079e-06
8.809e-01,1.427e-06
8.820e-01,1.885e-06
8.831e-01,2.488e-06
8.842e-01,3.281e-06
8.854e-01,4.322e-06
8.865e-01,5.688e-06
8.876e-01,7.477e-06
8.887e-01,9.819e-06
8.898e-01,1.288e-05
8.909e-01,1.688e-05
8.920e-01,2.209e-05
8.931e-01,2.888e-05
8.942e-01,3.772e-05
8.953e-01,4.921e-05
8.964e-01,6.412e-05
8.975e-01,8.346e-05
8.986e-01,1.085e-04
8.998e-01,1.409e-04
9.009e-01,1.827e-04
9.020e-01,2.367e-04
9.031e-01,3.061e-04
9.042e-01,3.956e-04
9.053e-01,5.104e-04
9.064e-01,6.578e-04
9.075e-01,8.466e-04
9.086e-01,1.088e-03
9.097e-01,1.397e-03
9.108e-01,1.790e-03
9.119e-01,2.291e-03
9.130e-01,2.929e-03
9.142e-01,3.738e-03
9.153e-01,4.763e-03
9.164e-01,6.060e-03
9.175e-01,7.700e-03
9.186e-01,9.767e-03
9.197e-01,1.237e-02
9.208e-01,1.564e-02
9.219e-01,1.974e-02
9.230e-01,2.487e-02
9.241e-01,3.129e-02
9.252e-01,3.929e-02
9.263e-01,4.924e-02
9.274e-01,6.160e-02
9.286e-01,7.691e-02
9.297e-01,9.585e-02
9.308e-01,1.192e-01
9.319e-01,1.479e-01
9.330e-01,1.832e-01
9.341e-01,2.264e-01
9.352e-01,2.792e-01
9.363e-01,3.435e-01
9.374e-01,4.216e-01
9.385e-01,5.162e-01
9.396e-01,6.304e-01
9.407e-01,7.679e-01
9.418e-01,9.330e-01
9.430e-01,1.130e+00
9.441e-01,1.366e+00
9.452e-01,1.645e+00
9.463e-01,1.976e+00
9.474e-01,2.365e+00
9.485e-01,2.822e+00
9.496e-01,3.356e+00
9.507e-01,3.977e+00
9.518e-01,4.695e+00
9.529e-01,5.522e+00
9.540e-01,6.469e+00
9.551e-01,7.546e+00
9.562e-01,8.765e+00
9.574e-01,1.013e+01
9.585e-01,1.166e+01
9.596e-01,1.335e+01
9.607e-01,1.521e+01
9.618e-01,1.722e+01
9.629e-01,1.939e+01
9.640e-01,2.170e+01
9.651e-01,2.412e+01
9.662e-01,2.663e+01
9.673e-01,2.918e+01
9.684e-01,3.173e+01
9.695e-01,3.421e+01
9.706e-01,3.655e+01
9.718e-01,3.867e+01
9.729e-01,4.050e+01
9.740e-01,4.193e+01
9.751e-01,4.289e+01
9.762e-01,4.329e+01
9.773e-01,4.307e+01
9.784e-01,4.216e+01
9.795e-01,4.056e+01
9.806e-01,3.826e+01
9.817e-01,3.532e+01
9.828e-01,3.182e+01
9.839e-01,2.788e+01
9.850e-01,2.367e+01
9.862e-01,1.938e+01
9.873e-01,1.520e+01
9.884e-01,1.135e+01
9.895e-01,7.976e+00
9.906e-01,5.210e+00
9.917e-01,3.105e+00
9.928e-01,1.645e+00
9.939e-01,7.447e-01
9.950e-01,2.704e-01
9.961e-01,7.046e-02
9.972e-01,1.051e-02
9.983e-01,4.999e-04
9.994e-01,5.062e-07
