transmittance,probability_density
8.240e-01,1.363e-35
8.249e-01,2.439e-35
8.258e-01,4.363e-35
8.266e-01,7.797e-35
8.275e-01,1.392e-34
8.284e-01,2.484e-34
8.293e-01,4.428e-34
8.302e-01,7.886e-34
8.310e-01,1.403e-33
8.319e-01,2.495e-33
8.328e-01,4.432e-33
8.337e-01,7.866e-33
8.346e-01,1.395e-32
8.355e-01,2.471e-32
8.363e-01,4.375e-32
8.372e-01,7.738e-32
8.381e-01,1.367e-31
8.390e-01,2.414e-31
8.399e-01,4.259e-31
8.407e-01,7.507e-31
8.416e-01,1.322e-30
8.425e-01,2.326e-30
8.434e-01,4.089e-30
8.443e-01,7.181e-30
8.452e-01,1.260e-29
8.460e-01,2.210e-29
8.469e-01,3.870e-29
8.478e-01,6.774e-29
8.487e-01,1.185e-28
8.496e-01,2.069e-28
8.505e-01,3.612e-28
8.513e-01,6.300e-28
8.522e-01,1.098e-27
8.531e-01,1.911e-27
8.540e-01,3.324e-27
8.549e-01,5.775e-27
8.557e-01,1.003e-26
8.566e-01,1.739e-26
8.575e-01,3.014e-26
8.584e-01,5.219e-26
8.593e-01,9.028e-26
8.602e-01,1.560e-25
8.610e-01,2.694e-25
8.619e-01,4.648e-25
8.628e-01,8.010e-25
8.637e-01,1.379e-24
8.646e-01,2.373e-24
8.655e-01,4.078e-24
8.663e-01,7.003e-24
8.672e-01,1.201e-23
8.681e-01,2.059e-23
8.690e-01,3.526e-23
8.699e-01,6.032e-23
8.707e-01,1.031e-22
8.716e-01,1.760e-22
8.725e-01,3.002e-22
8.734e-01,5.116e-22
8.743e-01,8.710e-22
8.752e-01,1.482e-21
8.760e-01,2.517e-21
8.769e-01,4.273e-21
8.778e-01,7.247e-21
8.787e-01,1.228e-20
8.796e-01,2.078e-20
8.805e-01,3.514e-20
8.813e-01,5.935e-20
8.822e-01,1.002e-19
8.831e-01,1.688e-19
8.840e-01,2.843e-19
8.849e-01,4.783e-19
8.857e-01,8.038e-19
8.866e-01,1.349e-18
8.875e-01,2.263e-18
8.884e-01,3.792e-18
8.893e-01,6.346e-18
8.902e-01,1.061e-17
8.910e-01,1.772e-17
8.919e-01,2.956e-17
8.928e-01,4.925e-17
8.937e-01,8.198e-17
8.946e-01,1.363e-16
8.955e-01,2.264e-16
8.963e-01,3.757e-16
8.972e-01,6.226e-16
8.981e-01,1.031e-15
8.990e-01,1.704e-15
8.999e-01,2.815e-15
9.007e-01,4.643e-15
9.016e-01,7.651e-15
9.025e-01,1.259e-14
9.034e-01,2.070e-14
9.043e-01,3.399e-14
9.052e-01,5.575e-14
9.060e-01,9.131e-14
9.069e-01,1.494e-13
9.078e-01,2.441e-13
9.087e-01,3.983e-13
9.096e-01,6.492e-13
9.104e-01,1.057e-12
9.113e-01,1.718e-12
9.122e-01,2.789e-12
9.131e-01,4.522e-12
9.140e-01,7.323e-12
9.149e-01,1.184e-11
9.157e-01,1.912e-11
9.166e-01,3.084e-11
9.175e-01,4.966e-11
9.184e-01,7.985e-11
9.193e-01,1.282e-10
9.202e-01,2.056e-10
9.210e-01,3.292e-10
9.219e-01,5.263e-10
9.228e-01,8.401e-10
9.237e-01,1.339e-09
9.246e-01,2.131e-09
9.254e-01,3.386e-09
9.263e-01,5.371e-09
9.272e-01,8.506e-09
9.281e-01,1.345e-08
9.290e-01,2.123e-08
9.299e-01,3.345e-08
9.307e-01,5.262e-08
9.316e-01,8.262e-08
9.325e-01,1.295e-07
9.334e-01,2.026e-07
9.343e-01,3.164e-07
9.352e-01,4.932e-07
9.360e-01,7.672e-07
9.369e-01,1.191e-06
9.378e-01,1.846e-06
9.387e-01,2.854e-06
9.396e-01,4.403e-06
9.404e-01,6.779e-06
9.413e-01,1.042e-05
9.422e-01,1.597e-05
9.431e-01,2.442e-05
9.440e-01,3.725e-05
9.449e-01,5.670e-05
9.457e-01,8.609e-05
9.466e-01,1.304e-04
9.475e-01,1.969e-04
9.484e-01,2.967e-04
9.493e-01,4.457e-04
9.502e-01,6.677e-04
9.510e-01,9.974e-04
9.519e-01,1.485e-03
9.528e-01,2.205e-03
9.537e-01,3.264e-03
9.546e-01,4.814e-03
9.554e-01,7.078e-03
9.563e-01,1.037e-02
9.572e-01,1.513e-02
9.581e-01,2.201e-02
9.590e-01,3.188e-02
9.599e-01,4.599e-02
9.607e-01,6.607e-02
9.616e-01,9.451e-02
9.625e-01,1.346e-01
9.634e-01,1.907e-01
9.643e-01,2.689e-01
9.652e-01,3.772e-01
9.660e-01,5.263e-01
9.669e-01,7.302e-01
9.678e-01,1.007e+00
9.687e-01,1.380e+00
9.696e-01,1.879e+00
9.704e-01,2.541e+00
9.713e-01,3.411e+00
9.722e-01,4.543e+00
9.731e-01,6.001e+00
9.740e-01,7.858e+00
9.749e-01,1.019e+01
9.757e-01,1.309e+01
9.766e-01,1.664e+01
9.775e-01,2.091e+01
9.784e-01,2.595e+01
9.793e-01,3.178e+01
9.801e-01,3.837e+01
9.810e-01,4.560e+01
9.819e-01,5.327e+01
9.828e-01,6.107e+01
9.837e-01,6.859e+01
9.846e-01,7.528e+01
9.854e-01,8.053e+01
9.863e-01,8.371e+01
9.872e-01,8.423e+01
9.881e-01,8.167e+01
9.890e-01,7.587e+01
9.899e-01,6.706e+01
9.907e-01,5.588e+01
9.916e-01,4.340e+01
9.925e-01,3.093e+01
9.934e-01,1.979e+01
9.943e-01,1.103e+01
9.951e-01,5.109e+00
9.960e-01,1.827e+00
9.969e-01,4.426e-01
9.978e-01,5.569e-02
9.987e-01,1.834e-03
9.996e-01,6.586e-07
