transmittance,probability_density
6.969e-04,1.385e-02
2.091e-03,1.776e+00
3.484e-03,7.741e+00
4.878e-03,1.555e+01
6.272e-03,2.274e+01
7.665e-03,2.824e+01
9.059e-03,3.190e+01
1.045e-02,3.394e+01
1.185e-02,3.471e+01
1.324e-02,3.452e+01
1.463e-02,3.367e+01
1.603e-02,3.237e+01
1.742e-02,3.079e+01
1.881e-02,2.906e+01
2.021e-02,2.727e+01
2.160e-02,2.546e+01
2.300e-02,2.370e+01
2.439e-02,2.200e+01
2.578e-02,2.038e+01
2.718e-02,1.886e+01
2.857e-02,1.743e+01
2.996e-02,1.610e+01
3.136e-02,1.486e+01
3.275e-02,1.372e+01
3.415e-02,1.266e+01
3.554e-02,1.169e+01
3.693e-02,1.079e+01
3.833e-02,9.965e+00
3.972e-02,9.207e+00
4.111e-02,8.509e+00
4.251e-02,7.868e+00
4.390e-02,7.279e+00
4.530e-02,6.738e+00
4.669e-02,6.240e+00
4.808e-02,5.783e+00
4.948e-02,5.362e+00
5.087e-02,4.975e+00
5.226e-02,4.619e+00
5.366e-02,4.290e+00
5.505e-02,3.988e+00
5.644e-02,3.709e+00
5.784e-02,3.452e+00
5.923e-02,3.215e+00
6.063e-02,2.995e+00
6.202e-02,2.793e+00
6.341e-02,2.606e+00
6.481e-02,2.432e+00
6.620e-02,2.272e+00
6.759e-02,2.123e+00
6.899e-02,1.986e+00
7.038e-02,1.858e+00
7.178e-02,1.739e+00
7.317e-02,1.629e+00
7.456e-02,1.527e+00
7.596e-02,1.432e+00
7.735e-02,1.343e+00
7.874e-02,1.261e+00
8.014e-02,1.184e+00
8.153e-02,1.113e+00
8.293e-02,1.046e+00
8.432e-02,9.843e-01
8.571e-02,9.263e-01
8.711e-02,8.721e-01
8.850e-02,8.215e-01
8.989e-02,7.742e-01
9.129e-02,7.299e-01
9.268e-02,6.885e-01
9.407e-02,6.498e-01
9.547e-02,6.134e-01
9.686e-02,5.794e-01
9.826e-02,5.475e-01
9.965e-02,5.175e-01
1.010e-01,4.894e-01
1.024e-01,4.630e-01
1.038e-01,4.382e-01
1.052e-01,4.149e-01
1.066e-01,3.930e-01
1.080e-01,3.724e-01
1.094e-01,3.530e-01
1.108e-01,3.347e-01
1.122e-01,3.175e-01
1.136e-01,3.013e-01
1.150e-01,2.860e-01
1.164e-01,2.716e-01
1.178e-01,2.580e-01
1.192e-01,2.452e-01
1.206e-01,2.330e-01
1.219e-01,2.216e-01
1.233e-01,2.108e-01
1.247e-01,2.005e-01
1.261e-01,1.909e-01
1.275e-01,1.817e-01
1.289e-01,1.731e-01
1.303e-01,1.649e-01
1.317e-01,1.571e-01
1.331e-01,1.498e-01
1.345e-01,1.428e-01
1.359e-01,1.362e-01
1.373e-01,1.300e-01
1.387e-01,1.240e-01
1.401e-01,1.184e-01
1.415e-01,1.130e-01
1.429e-01,1.080e-01
1.442e-01,1.031e-01
1.456e-01,9.857e-02
1.470e-01,9.421e-02
1.484e-01,9.008e-02
1.498e-01,8.614e-02
1.512e-01,8.240e-02
1.526e-01,7.884e-02
1.540e-01,7.546e-02
1.554e-01,7.223e-02
1.568e-01,6.916e-02
1.582e-01,6.624e-02
1.596e-01,6.345e-02
1.610e-01,6.080e-02
1.624e-01,5.827e-02
1.638e-01,5.586e-02
1.652e-01,5.355e-02
1.665e-01,5.136e-02
1.679e-01,4.926e-02
1.693e-01,4.727e-02
1.707e-01,4.536e-02
1.721e-01,4.354e-02
1.735e-01,4.180e-02
1.749e-01,4.013e-02
1.763e-01,3.854e-02
1.777e-01,3.703e-02
1.791e-01,3.557e-02
1.805e-01,3.419e-02
1.819e-01,3.286e-02
1.833e-01,3.159e-02
1.847e-01,3.037e-02
1.861e-01,2.921e-02
1.875e-01,2.810e-02
1.888e-01,2.703e-02
1.902e-01,2.601e-02
1.916e-01,2.503e-02
1.930e-01,2.410e-02
1.944e-01,2.320e-02
1.958e-01,2.234e-02
1.972e-01,2.151e-02
1.986e-01,2.072e-02
2.000e-01,1.996e-02
2.014e-01,1.924e-02
2.028e-01,1.854e-02
2.042e-01,1.787e-02
2.056e-01,1.723e-02
2.070e-01,1.661e-02
2.084e-01,1.602e-02
2.098e-01,1.545e-02
2.111e-01,1.490e-02
2.125e-01,1.438e-02
2.139e-01,1.387e-02
2.153e-01,1.339e-02
2.167e-01,1.292e-02
2.181e-01,1.248e-02
2.195e-01,1.205e-02
2.209e-01,1.163e-02
2.223e-01,1.124e-02
2.237e-01,1.085e-02
2.251e-01,1.048e-02
2.265e-01,1.013e-02
2.279e-01,9.789e-03
2.293e-01,9.461e-03
2.307e-01,9.145e-03
2.321e-01,8.841e-03
2.334e-01,8.548e-03
2.348e-01,8.266e-03
2.362e-01,7.994e-03
2.376e-01,7.732e-03
2.390e-01,7.480e-03
2.404e-01,7.237e-03
2.418e-01,7.002e-03
2.432e-01,6.777e-03
2.446e-01,6.559e-03
2.460e-01,6.349e-03
2.474e-01,6.146e-03
2.488e-01,5.951e-03
2.502e-01,5.762e-03
2.516e-01,5.581e-03
2.530e-01,5.405e-03
2.544e-01,5.236e-03
2.557e-01,5.073e-03
2.571e-01,4.915e-03
2.585e-01,4.763e-03
2.599e-01,4.616e-03
2.613e-01,4.474e-03
2.627e-01,4.336e-03
2.641e-01,4.204e-03
2.655e-01,4.076e-03
2.669e-01,3.952e-03
2.683e-01,3.833e-03
2.697e-01,3.717e-03
2.711e-01,3.606e-03
2.725e-01,3.498e-03
2.739e-01,3.394e-03
2.753e-01,3.293e-03
2.766e-01,3.195e-03
2.780e-01,3.101e-03
