transmittance,probability_density
2.912e-04,1.757e-01
8.737e-04,1.080e+01
1.456e-03,3.541e+01
2.039e-03,6.015e+01
2.621e-03,7.841e+01
3.203e-03,8.942e+01
3.786e-03,9.448e+01
4.368e-03,9.523e+01
4.951e-03,9.308e+01
5.533e-03,8.912e+01
6.116e-03,8.410e+01
6.698e-03,7.857e+01
7.281e-03,7.288e+01
7.863e-03,6.726e+01
8.446e-03,6.184e+01
9.028e-03,5.672e+01
9.610e-03,5.192e+01
1.019e-02,4.748e+01
1.078e-02,4.340e+01
1.136e-02,3.965e+01
1.194e-02,3.622e+01
1.252e-02,3.310e+01
1.311e-02,3.026e+01
1.369e-02,2.767e+01
1.427e-02,2.532e+01
1.485e-02,2.319e+01
1.543e-02,2.125e+01
1.602e-02,1.948e+01
1.660e-02,1.788e+01
1.718e-02,1.642e+01
1.776e-02,1.510e+01
1.835e-02,1.389e+01
1.893e-02,1.279e+01
1.951e-02,1.179e+01
2.009e-02,1.087e+01
2.068e-02,1.004e+01
2.126e-02,9.275e+00
2.184e-02,8.577e+00
2.242e-02,7.937e+00
2.301e-02,7.352e+00
2.359e-02,6.815e+00
2.417e-02,6.322e+00
2.475e-02,5.869e+00
2.534e-02,5.453e+00
2.592e-02,5.070e+00
2.650e-02,4.718e+00
2.708e-02,4.393e+00
2.767e-02,4.093e+00
2.825e-02,3.817e+00
2.883e-02,3.561e+00
2.941e-02,3.325e+00
3.000e-02,3.107e+00
3.058e-02,2.905e+00
3.116e-02,2.718e+00
3.174e-02,2.544e+00
3.233e-02,2.383e+00
3.291e-02,2.233e+00
3.349e-02,2.094e+00
3.407e-02,1.965e+00
3.466e-02,1.845e+00
3.524e-02,1.733e+00
3.582e-02,1.629e+00
3.640e-02,1.532e+00
3.699e-02,1.441e+00
3.757e-02,1.357e+00
3.815e-02,1.278e+00
3.873e-02,1.204e+00
3.932e-02,1.135e+00
3.990e-02,1.071e+00
4.048e-02,1.011e+00
4.106e-02,9.542e-01
4.165e-02,9.013e-01
4.223e-02,8.517e-01
4.281e-02,8.052e-01
4.339e-02,7.616e-01
4.397e-02,7.206e-01
4.456e-02,6.822e-01
4.514e-02,6.460e-01
4.572e-02,6.120e-01
4.630e-02,5.800e-01
4.689e-02,5.500e-01
4.747e-02,5.216e-01
4.805e-02,4.950e-01
4.863e-02,4.698e-01
4.922e-02,4.461e-01
4.980e-02,4.238e-01
5.038e-02,4.027e-01
5.096e-02,3.828e-01
5.155e-02,3.640e-01
5.213e-02,3.463e-01
5.271e-02,3.295e-01
5.329e-02,3.136e-01
5.388e-02,2.986e-01
5.446e-02,2.844e-01
5.504e-02,2.710e-01
5.562e-02,2.583e-01
5.621e-02,2.462e-01
5.679e-02,2.348e-01
5.737e-02,2.240e-01
5.795e-02,2.138e-01
5.854e-02,2.040e-01
5.912e-02,1.948e-01
5.970e-02,1.861e-01
6.028e-02,1.777e-01
6.087e-02,1.699e-01
6.145e-02,1.624e-01
6.203e-02,1.552e-01
6.261e-02,1.485e-01
6.320e-02,1.420e-01
6.378e-02,1.359e-01
6.436e-02,1.300e-01
6.494e-02,1.245e-01
6.553e-02,1.192e-01
6.611e-02,1.142e-01
6.669e-02,1.094e-01
6.727e-02,1.048e-01
6.786e-02,1.005e-01
6.844e-02,9.633e-02
6.902e-02,9.237e-02
6.960e-02,8.860e-02
7.019e-02,8.500e-02
7.077e-02,8.156e-02
7.135e-02,7.828e-02
7.193e-02,7.515e-02
7.252e-02,7.216e-02
7.310e-02,6.930e-02
7.368e-02,6.657e-02
7.426e-02,6.396e-02
7.484e-02,6.147e-02
7.543e-02,5.908e-02
7.601e-02,5.680e-02
7.659e-02,5.462e-02
7.717e-02,5.253e-02
7.776e-02,5.053e-02
7.834e-02,4.861e-02
7.892e-02,4.678e-02
7.950e-02,4.503e-02
8.009e-02,4.335e-02
8.067e-02,4.174e-02
8.125e-02,4.019e-02
8.183e-02,3.871e-02
8.242e-02,3.729e-02
8.300e-02,3.593e-02
8.358e-02,3.463e-02
8.416e-02,3.338e-02
8.475e-02,3.218e-02
8.533e-02,3.102e-02
8.591e-02,2.992e-02
8.649e-02,2.886e-02
8.708e-02,2.784e-02
8.766e-02,2.686e-02
8.824e-02,2.591e-02
8.882e-02,2.501e-02
8.941e-02,2.414e-02
8.999e-02,2.331e-02
9.057e-02,2.250e-02
9.115e-02,2.173e-02
9.174e-02,2.099e-02
9.232e-02,2.028e-02
9.290e-02,1.959e-02
9.348e-02,1.893e-02
9.407e-02,1.829e-02
9.465e-02,1.768e-02
9.523e-02,1.709e-02
9.581e-02,1.653e-02
9.640e-02,1.598e-02
9.698e-02,1.546e-02
9.756e-02,1.495e-02
9.814e-02,1.446e-02
9.873e-02,1.399e-02
9.931e-02,1.354e-02
9.989e-02,1.310e-02
1.005e-01,1.268e-02
1.011e-01,1.228e-02
1.016e-01,1.188e-02
1.022e-01,1.151e-02
1.028e-01,1.114e-02
1.034e-01,1.079e-02
1.040e-01,1.045e-02
1.045e-01,1.013e-02
1.051e-01,9.811e-03
1.057e-01,9.506e-03
1.063e-01,9.212e-03
1.069e-01,8.929e-03
1.075e-01,8.655e-03
1.080e-01,8.390e-03
1.086e-01,8.134e-03
1.092e-01,7.888e-03
1.098e-01,7.649e-03
1.104e-01,7.419e-03
1.110e-01,7.196e-03
1.115e-01,6.981e-03
1.121e-01,6.772e-03
1.127e-01,6.571e-03
1.133e-01,6.377e-03
1.139e-01,6.189e-03
1.145e-01,6.007e-03
1.150e-01,5.831e-03
1.156e-01,5.661e-03
1.162e-01,5.496e-03
