transmittance,probability_density
4.103e-04,1.120e-02
1.231e-03,1.776e+00
2.052e-03,8.607e+00
2.872e-03,1.858e+01
3.693e-03,2.872e+01
4.513e-03,3.730e+01
5.334e-03,4.377e+01
6.155e-03,4.812e+01
6.975e-03,5.065e+01
7.796e-03,5.170e+01
8.616e-03,5.163e+01
9.437e-03,5.072e+01
1.026e-02,4.922e+01
1.108e-02,4.732e+01
1.190e-02,4.517e+01
1.272e-02,4.287e+01
1.354e-02,4.051e+01
1.436e-02,3.815e+01
1.518e-02,3.583e+01
1.600e-02,3.359e+01
1.682e-02,3.143e+01
1.764e-02,2.937e+01
1.846e-02,2.743e+01
1.928e-02,2.559e+01
2.010e-02,2.387e+01
2.093e-02,2.226e+01
2.175e-02,2.075e+01
2.257e-02,1.934e+01
2.339e-02,1.803e+01
2.421e-02,1.681e+01
2.503e-02,1.568e+01
2.585e-02,1.462e+01
2.667e-02,1.365e+01
2.749e-02,1.274e+01
2.831e-02,1.189e+01
2.913e-02,1.111e+01
2.995e-02,1.038e+01
3.077e-02,9.704e+00
3.159e-02,9.076e+00
3.241e-02,8.493e+00
3.323e-02,7.951e+00
3.405e-02,7.446e+00
3.488e-02,6.977e+00
3.570e-02,6.541e+00
3.652e-02,6.135e+00
3.734e-02,5.757e+00
3.816e-02,5.405e+00
3.898e-02,5.077e+00
3.980e-02,4.771e+00
4.062e-02,4.485e+00
4.144e-02,4.219e+00
4.226e-02,3.970e+00
4.308e-02,3.738e+00
4.390e-02,3.521e+00
4.472e-02,3.318e+00
4.554e-02,3.128e+00
4.636e-02,2.950e+00
4.718e-02,2.784e+00
4.801e-02,2.628e+00
4.883e-02,2.482e+00
4.965e-02,2.345e+00
5.047e-02,2.216e+00
5.129e-02,2.096e+00
5.211e-02,1.983e+00
5.293e-02,1.876e+00
5.375e-02,1.776e+00
5.457e-02,1.682e+00
5.539e-02,1.594e+00
5.621e-02,1.511e+00
5.703e-02,1.433e+00
5.785e-02,1.359e+00
5.867e-02,1.289e+00
5.949e-02,1.224e+00
6.031e-02,1.162e+00
6.113e-02,1.104e+00
6.196e-02,1.049e+00
6.278e-02,9.972e-01
6.360e-02,9.482e-01
6.442e-02,9.019e-01
6.524e-02,8.582e-01
6.606e-02,8.168e-01
6.688e-02,7.777e-01
6.770e-02,7.407e-01
6.852e-02,7.057e-01
6.934e-02,6.725e-01
7.016e-02,6.411e-01
7.098e-02,6.114e-01
7.180e-02,5.832e-01
7.262e-02,5.564e-01
7.344e-02,5.311e-01
7.426e-02,5.070e-01
7.508e-02,4.842e-01
7.591e-02,4.625e-01
7.673e-02,4.419e-01
7.755e-02,4.223e-01
7.837e-02,4.037e-01
7.919e-02,3.861e-01
8.001e-02,3.693e-01
8.083e-02,3.533e-01
8.165e-02,3.381e-01
8.247e-02,3.236e-01
8.329e-02,3.099e-01
8.411e-02,2.967e-01
8.493e-02,2.843e-01
8.575e-02,2.724e-01
8.657e-02,2.610e-01
8.739e-02,2.502e-01
8.821e-02,2.399e-01
8.904e-02,2.301e-01
8.986e-02,2.207e-01
9.068e-02,2.118e-01
9.150e-02,2.032e-01
9.232e-02,1.951e-01
9.314e-02,1.873e-01
9.396e-02,1.798e-01
9.478e-02,1.727e-01
9.560e-02,1.659e-01
9.642e-02,1.594e-01
9.724e-02,1.532e-01
9.806e-02,1.473e-01
9.888e-02,1.416e-01
9.970e-02,1.362e-01
1.005e-01,1.310e-01
1.013e-01,1.260e-01
1.022e-01,1.212e-01
1.030e-01,1.167e-01
1.038e-01,1.123e-01
1.046e-01,1.081e-01
1.054e-01,1.041e-01
1.063e-01,1.003e-01
1.071e-01,9.658e-02
1.079e-01,9.305e-02
1.087e-01,8.966e-02
1.096e-01,8.641e-02
1.104e-01,8.329e-02
1.112e-01,8.029e-02
1.120e-01,7.742e-02
1.128e-01,7.466e-02
1.137e-01,7.202e-02
1.145e-01,6.948e-02
1.153e-01,6.703e-02
1.161e-01,6.469e-02
1.169e-01,6.243e-02
1.178e-01,6.027e-02
1.186e-01,5.819e-02
1.194e-01,5.618e-02
1.202e-01,5.426e-02
1.210e-01,5.241e-02
1.219e-01,5.063e-02
1.227e-01,4.892e-02
1.235e-01,4.727e-02
1.243e-01,4.568e-02
1.251e-01,4.416e-02
1.260e-01,4.269e-02
1.268e-01,4.127e-02
1.276e-01,3.991e-02
1.284e-01,3.860e-02
1.292e-01,3.734e-02
1.301e-01,3.612e-02
1.309e-01,3.494e-02
1.317e-01,3.381e-02
1.325e-01,3.272e-02
1.333e-01,3.167e-02
1.342e-01,3.066e-02
1.350e-01,2.968e-02
1.358e-01,2.874e-02
1.366e-01,2.783e-02
1.375e-01,2.696e-02
1.383e-01,2.611e-02
1.391e-01,2.530e-02
1.399e-01,2.451e-02
1.407e-01,2.375e-02
1.416e-01,2.301e-02
1.424e-01,2.231e-02
1.432e-01,2.162e-02
1.440e-01,2.096e-02
1.448e-01,2.032e-02
1.457e-01,1.971e-02
1.465e-01,1.911e-02
1.473e-01,1.854e-02
1.481e-01,1.798e-02
1.489e-01,1.744e-02
1.498e-01,1.692e-02
1.506e-01,1.642e-02
1.514e-01,1.593e-02
1.522e-01,1.546e-02
1.530e-01,1.501e-02
1.539e-01,1.457e-02
1.547e-01,1.414e-02
1.555e-01,1.373e-02
1.563e-01,1.334e-02
1.571e-01,1.295e-02
1.580e-01,1.258e-02
1.588e-01,1.222e-02
1.596e-01,1.187e-02
1.604e-01,1.153e-02
1.612e-01,1.120e-02
1.621e-01,1.089e-02
1.629e-01,1.058e-02
1.637e-01,1.028e-02
