transmittance,probability_density
1.681e-03,1.819e-06
5.042e-03,6.251e-03
8.404e-03,9.858e-02
1.177e-02,4.246e-01
1.513e-02,1.051e+00
1.849e-02,1.934e+00
2.185e-02,2.975e+00
2.521e-02,4.072e+00
2.857e-02,5.137e+00
3.194e-02,6.112e+00
3.530e-02,6.959e+00
3.866e-02,7.662e+00
4.202e-02,8.218e+00
4.538e-02,8.633e+00
4.874e-02,8.918e+00
5.210e-02,9.087e+00
5.547e-02,9.155e+00
5.883e-02,9.138e+00
6.219e-02,9.050e+00
6.555e-02,8.903e+00
6.891e-02,8.710e+00
7.227e-02,8.481e+00
7.564e-02,8.224e+00
7.900e-02,7.947e+00
8.236e-02,7.656e+00
8.572e-02,7.357e+00
8.908e-02,7.053e+00
9.244e-02,6.749e+00
9.581e-02,6.448e+00
9.917e-02,6.150e+00
1.025e-01,5.860e+00
1.059e-01,5.577e+00
1.093e-01,5.302e+00
1.126e-01,5.037e+00
1.160e-01,4.782e+00
1.193e-01,4.538e+00
1.227e-01,4.303e+00
1.261e-01,4.079e+00
1.294e-01,3.866e+00
1.328e-01,3.662e+00
1.361e-01,3.469e+00
1.395e-01,3.285e+00
1.429e-01,3.110e+00
1.462e-01,2.944e+00
1.496e-01,2.787e+00
1.530e-01,2.639e+00
1.563e-01,2.498e+00
1.597e-01,2.365e+00
1.630e-01,2.239e+00
1.664e-01,2.120e+00
1.698e-01,2.007e+00
1.731e-01,1.900e+00
1.765e-01,1.800e+00
1.798e-01,1.705e+00
1.832e-01,1.615e+00
1.866e-01,1.530e+00
1.899e-01,1.450e+00
1.933e-01,1.374e+00
1.967e-01,1.303e+00
2.000e-01,1.235e+00
2.034e-01,1.171e+00
2.067e-01,1.111e+00
2.101e-01,1.054e+00
2.135e-01,9.998e-01
2.168e-01,9.489e-01
2.202e-01,9.007e-01
2.235e-01,8.552e-01
2.269e-01,8.121e-01
2.303e-01,7.714e-01
2.336e-01,7.328e-01
2.370e-01,6.964e-01
2.404e-01,6.619e-01
2.437e-01,6.292e-01
2.471e-01,5.983e-01
2.504e-01,5.691e-01
2.538e-01,5.413e-01
2.572e-01,5.151e-01
2.605e-01,4.902e-01
2.639e-01,4.667e-01
2.672e-01,4.443e-01
2.706e-01,4.232e-01
2.740e-01,4.031e-01
2.773e-01,3.840e-01
2.807e-01,3.660e-01
2.841e-01,3.489e-01
2.874e-01,3.326e-01
2.908e-01,3.172e-01
2.941e-01,3.025e-01
2.975e-01,2.886e-01
3.009e-01,2.754e-01
3.042e-01,2.628e-01
3.076e-01,2.509e-01
3.109e-01,2.395e-01
3.143e-01,2.288e-01
3.177e-01,2.185e-01
3.210e-01,2.088e-01
3.244e-01,1.995e-01
3.278e-01,1.907e-01
3.311e-01,1.823e-01
3.345e-01,1.743e-01
3.378e-01,1.667e-01
3.412e-01,1.594e-01
3.446e-01,1.525e-01
3.479e-01,1.460e-01
3.513e-01,1.397e-01
3.546e-01,1.337e-01
3.580e-01,1.280e-01
3.614e-01,1.226e-01
3.647e-01,1.174e-01
3.681e-01,1.125e-01
3.715e-01,1.078e-01
3.748e-01,1.033e-01
3.782e-01,9.901e-02
3.815e-01,9.492e-02
3.849e-01,9.101e-02
3.883e-01,8.728e-02
3.916e-01,8.372e-02
3.950e-01,8.032e-02
3.983e-01,7.706e-02
4.017e-01,7.395e-02
4.051e-01,7.098e-02
4.084e-01,6.814e-02
4.118e-01,6.543e-02
4.152e-01,6.283e-02
4.185e-01,6.035e-02
4.219e-01,5.797e-02
4.252e-01,5.570e-02
4.286e-01,5.352e-02
4.320e-01,5.144e-02
4.353e-01,4.944e-02
4.387e-01,4.754e-02
4.421e-01,4.571e-02
4.454e-01,4.396e-02
4.488e-01,4.228e-02
4.521e-01,4.067e-02
4.555e-01,3.913e-02
4.589e-01,3.765e-02
4.622e-01,3.624e-02
4.656e-01,3.488e-02
4.689e-01,3.358e-02
4.723e-01,3.233e-02
4.757e-01,3.113e-02
4.790e-01,2.998e-02
4.824e-01,2.888e-02
4.858e-01,2.782e-02
4.891e-01,2.680e-02
4.925e-01,2.583e-02
4.958e-01,2.489e-02
4.992e-01,2.399e-02
5.026e-01,2.313e-02
5.059e-01,2.230e-02
5.093e-01,2.150e-02
5.126e-01,2.074e-02
5.160e-01,2.000e-02
5.194e-01,1.930e-02
5.227e-01,1.862e-02
5.261e-01,1.796e-02
5.295e-01,1.733e-02
5.328e-01,1.673e-02
5.362e-01,1.615e-02
5.395e-01,1.559e-02
5.429e-01,1.505e-02
5.463e-01,1.453e-02
5.496e-01,1.404e-02
5.530e-01,1.356e-02
5.563e-01,1.309e-02
5.597e-01,1.265e-02
5.631e-01,1.222e-02
5.664e-01,1.181e-02
5.698e-01,1.141e-02
5.732e-01,1.103e-02
5.765e-01,1.066e-02
5.799e-01,1.031e-02
5.832e-01,9.966e-03
5.866e-01,9.637e-03
5.900e-01,9.319e-03
5.933e-01,9.013e-03
5.967e-01,8.718e-03
6.000e-01,8.433e-03
6.034e-01,8.159e-03
6.068e-01,7.895e-03
6.101e-01,7.639e-03
6.135e-01,7.393e-03
6.169e-01,7.156e-03
6.202e-01,6.927e-03
6.236e-01,6.705e-03
6.269e-01,6.492e-03
6.303e-01,6.286e-03
6.337e-01,6.087e-03
6.370e-01,5.895e-03
6.404e-01,5.710e-03
6.437e-01,5.531e-03
6.471e-01,5.358e-03
6.505e-01,5.191e-03
6.538e-01,5.030e-03
6.572e-01,4.874e-03
6.606e-01,4.724e-03
6.639e-01,4.578e-03
6.673e-01,4.438e-03
6.706e-01,4.302e-03
