transmittance,probability_density
2.500e-03,8.684e-17
7.500e-03,2.231e-09
1.250e-02,1.138e-06
1.750e-02,3.836e-05
2.250e-02,3.911e-04
2.750e-02,2.071e-03
3.250e-02,7.306e-03
3.750e-02,1.963e-02
4.250e-02,4.346e-02
4.750e-02,8.342e-02
5.250e-02,1.436e-01
5.750e-02,2.269e-01
6.250e-02,3.350e-01
6.750e-02,4.678e-01
7.250e-02,6.241e-01
7.750e-02,8.013e-01
8.250e-02,9.960e-01
8.750e-02,1.205e+00
9.250e-02,1.423e+00
9.750e-02,1.646e+00
1.025e-01,1.870e+00
1.075e-01,2.093e+00
1.125e-01,2.309e+00
1.175e-01,2.516e+00
1.225e-01,2.713e+00
1.275e-01,2.896e+00
1.325e-01,3.065e+00
1.375e-01,3.218e+00
1.425e-01,3.355e+00
1.475e-01,3.476e+00
1.525e-01,3.579e+00
1.575e-01,3.667e+00
1.625e-01,3.738e+00
1.675e-01,3.793e+00
1.725e-01,3.834e+00
1.775e-01,3.861e+00
1.825e-01,3.875e+00
1.875e-01,3.876e+00
1.925e-01,3.867e+00
1.975e-01,3.847e+00
2.025e-01,3.817e+00
2.075e-01,3.779e+00
2.125e-01,3.734e+00
2.175e-01,3.681e+00
2.225e-01,3.623e+00
2.275e-01,3.560e+00
2.325e-01,3.492e+00
2.375e-01,3.420e+00
2.425e-01,3.346e+00
2.475e-01,3.268e+00
2.525e-01,3.189e+00
2.575e-01,3.108e+00
2.625e-01,3.026e+00
2.675e-01,2.943e+00
2.725e-01,2.860e+00
2.775e-01,2.777e+00
2.825e-01,2.694e+00
2.875e-01,2.611e+00
2.925e-01,2.530e+00
2.975e-01,2.449e+00
3.025e-01,2.369e+00
3.075e-01,2.291e+00
3.125e-01,2.214e+00
3.175e-01,2.138e+00
3.225e-01,2.065e+00
3.275e-01,1.992e+00
3.325e-01,1.922e+00
3.375e-01,1.853e+00
3.425e-01,1.786e+00
3.475e-01,1.721e+00
3.525e-01,1.658e+00
3.575e-01,1.597e+00
3.625e-01,1.537e+00
3.675e-01,1.479e+00
3.725e-01,1.423e+00
3.775e-01,1.369e+00
3.825e-01,1.317e+00
3.875e-01,1.266e+00
3.925e-01,1.218e+00
3.975e-01,1.170e+00
4.025e-01,1.125e+00
4.075e-01,1.081e+00
4.125e-01,1.039e+00
4.175e-01,9.980e-01
4.225e-01,9.587e-01
4.275e-01,9.208e-01
4.325e-01,8.844e-01
4.375e-01,8.494e-01
4.425e-01,8.156e-01
4.475e-01,7.832e-01
4.525e-01,7.520e-01
4.575e-01,7.220e-01
4.625e-01,6.932e-01
4.675e-01,6.654e-01
4.725e-01,6.388e-01
4.775e-01,6.132e-01
4.825e-01,5.887e-01
4.875e-01,5.651e-01
4.925e-01,5.424e-01
4.975e-01,5.207e-01
5.025e-01,4.998e-01
5.075e-01,4.797e-01
5.125e-01,4.605e-01
5.175e-01,4.420e-01
5.225e-01,4.243e-01
5.275e-01,4.073e-01
5.325e-01,3.910e-01
5.375e-01,3.753e-01
5.425e-01,3.603e-01
5.475e-01,3.459e-01
5.525e-01,3.320e-01
5.575e-01,3.188e-01
5.625e-01,3.060e-01
5.675e-01,2.938e-01
5.725e-01,2.821e-01
5.775e-01,2.709e-01
5.825e-01,2.601e-01
5.875e-01,2.498e-01
5.925e-01,2.399e-01
5.975e-01,2.304e-01
6.025e-01,2.212e-01
6.075e-01,2.125e-01
6.125e-01,2.041e-01
6.175e-01,1.961e-01
6.225e-01,1.883e-01
6.275e-01,1.809e-01
6.325e-01,1.738e-01
6.375e-01,1.670e-01
6.425e-01,1.605e-01
6.475e-01,1.542e-01
6.525e-01,1.482e-01
6.575e-01,1.424e-01
6.625e-01,1.368e-01
6.675e-01,1.315e-01
6.725e-01,1.264e-01
6.775e-01,1.215e-01
6.825e-01,1.168e-01
6.875e-01,1.123e-01
6.925e-01,1.080e-01
6.975e-01,1.038e-01
7.025e-01,9.984e-02
7.075e-01,9.601e-02
7.125e-01,9.233e-02
7.175e-01,8.880e-02
7.225e-01,8.541e-02
7.275e-01,8.216e-02
7.325e-01,7.904e-02
7.375e-01,7.604e-02
7.425e-01,7.316e-02
7.475e-01,7.039e-02
7.525e-01,6.774e-02
7.575e-01,6.519e-02
7.625e-01,6.274e-02
7.675e-01,6.038e-02
7.725e-01,5.812e-02
7.775e-01,5.595e-02
7.825e-01,5.386e-02
7.875e-01,5.185e-02
7.925e-01,4.993e-02
7.975e-01,4.807e-02
8.025e-01,4.629e-02
8.075e-01,4.458e-02
8.125e-01,4.294e-02
8.175e-01,4.136e-02
8.225e-01,3.984e-02
8.275e-01,3.838e-02
8.325e-01,3.697e-02
8.375e-01,3.562e-02
8.425e-01,3.433e-02
8.475e-01,3.308e-02
8.525e-01,3.188e-02
8.575e-01,3.072e-02
8.625e-01,2.961e-02
8.675e-01,2.854e-02
8.725e-01,2.751e-02
8.775e-01,2.652e-02
8.825e-01,2.557e-02
8.875e-01,2.466e-02
8.925e-01,2.378e-02
8.975e-01,2.293e-02
9.025e-01,2.211e-02
9.075e-01,2.133e-02
9.125e-01,2.057e-02
9.175e-01,1.984e-02
9.225e-01,1.914e-02
9.275e-01,1.847e-02
9.325e-01,1.782e-02
9.375e-01,1.719e-02
9.425e-01,1.659e-02
9.475e-01,1.601e-02
9.525e-01,1.545e-02
9.575e-01,1.491e-02
9.625e-01,1.440e-02
9.675e-01,1.390e-02
9.725e-01,1.342e-02
9.775e-01,1.295e-02
9.825e-01,1.251e-02
9.875e-01,1.208e-02
9.925e-01,1.166e-02
9.975e-01,1.126e-02
