transmittance,probability_density
2.177e-03,2.008e-13
6.532e-03,2.603e-07
1.089e-02,4.227e-05
1.524e-02,7.297e-04
1.959e-02,4.717e-03
2.395e-02,1.783e-02
2.830e-02,4.838e-02
3.266e-02,1.052e-01
3.701e-02,1.955e-01
4.137e-02,3.238e-01
4.572e-02,4.910e-01
5.008e-02,6.952e-01
5.443e-02,9.319e-01
5.878e-02,1.195e+00
6.314e-02,1.477e+00
6.749e-02,1.772e+00
7.185e-02,2.071e+00
7.620e-02,2.368e+00
8.056e-02,2.658e+00
8.491e-02,2.936e+00
8.926e-02,3.197e+00
9.362e-02,3.439e+00
9.797e-02,3.659e+00
1.023e-01,3.857e+00
1.067e-01,4.031e+00
1.110e-01,4.182e+00
1.154e-01,4.309e+00
1.197e-01,4.412e+00
1.241e-01,4.494e+00
1.285e-01,4.555e+00
1.328e-01,4.596e+00
1.372e-01,4.619e+00
1.415e-01,4.625e+00
1.459e-01,4.616e+00
1.502e-01,4.592e+00
1.546e-01,4.556e+00
1.589e-01,4.509e+00
1.633e-01,4.452e+00
1.676e-01,4.386e+00
1.720e-01,4.313e+00
1.764e-01,4.233e+00
1.807e-01,4.147e+00
1.851e-01,4.057e+00
1.894e-01,3.964e+00
1.938e-01,3.867e+00
1.981e-01,3.768e+00
2.025e-01,3.668e+00
2.068e-01,3.566e+00
2.112e-01,3.464e+00
2.155e-01,3.362e+00
2.199e-01,3.260e+00
2.242e-01,3.159e+00
2.286e-01,3.059e+00
2.330e-01,2.960e+00
2.373e-01,2.862e+00
2.417e-01,2.766e+00
2.460e-01,2.672e+00
2.504e-01,2.580e+00
2.547e-01,2.490e+00
2.591e-01,2.402e+00
2.634e-01,2.316e+00
2.678e-01,2.233e+00
2.721e-01,2.151e+00
2.765e-01,2.072e+00
2.809e-01,1.996e+00
2.852e-01,1.921e+00
2.896e-01,1.850e+00
2.939e-01,1.780e+00
2.983e-01,1.712e+00
3.026e-01,1.647e+00
3.070e-01,1.584e+00
3.113e-01,1.523e+00
3.157e-01,1.465e+00
3.200e-01,1.408e+00
3.244e-01,1.354e+00
3.288e-01,1.301e+00
3.331e-01,1.250e+00
3.375e-01,1.202e+00
3.418e-01,1.155e+00
3.462e-01,1.109e+00
3.505e-01,1.066e+00
3.549e-01,1.024e+00
3.592e-01,9.838e-01
3.636e-01,9.451e-01
3.679e-01,9.079e-01
3.723e-01,8.721e-01
3.767e-01,8.378e-01
3.810e-01,8.048e-01
3.854e-01,7.730e-01
3.897e-01,7.426e-01
3.941e-01,7.133e-01
3.984e-01,6.852e-01
4.028e-01,6.583e-01
4.071e-01,6.324e-01
4.115e-01,6.075e-01
4.158e-01,5.836e-01
4.202e-01,5.607e-01
4.245e-01,5.387e-01
4.289e-01,5.176e-01
4.333e-01,4.973e-01
4.376e-01,4.779e-01
4.420e-01,4.592e-01
4.463e-01,4.413e-01
4.507e-01,4.241e-01
4.550e-01,4.076e-01
4.594e-01,3.917e-01
4.637e-01,3.765e-01
4.681e-01,3.619e-01
4.724e-01,3.479e-01
4.768e-01,3.345e-01
4.812e-01,3.216e-01
4.855e-01,3.092e-01
4.899e-01,2.973e-01
4.942e-01,2.859e-01
4.986e-01,2.749e-01
5.029e-01,2.644e-01
5.073e-01,2.543e-01
5.116e-01,2.446e-01
5.160e-01,2.353e-01
5.203e-01,2.264e-01
5.247e-01,2.178e-01
5.291e-01,2.096e-01
5.334e-01,2.017e-01
5.378e-01,1.941e-01
5.421e-01,1.868e-01
5.465e-01,1.798e-01
5.508e-01,1.730e-01
5.552e-01,1.666e-01
5.595e-01,1.604e-01
5.639e-01,1.544e-01
5.682e-01,1.487e-01
5.726e-01,1.432e-01
5.770e-01,1.379e-01
5.813e-01,1.328e-01
5.857e-01,1.279e-01
5.900e-01,1.232e-01
5.944e-01,1.187e-01
5.987e-01,1.143e-01
6.031e-01,1.102e-01
6.074e-01,1.062e-01
6.118e-01,1.023e-01
6.161e-01,9.860e-02
6.205e-01,9.503e-02
6.248e-01,9.160e-02
6.292e-01,8.830e-02
6.336e-01,8.513e-02
6.379e-01,8.208e-02
6.423e-01,7.915e-02
6.466e-01,7.632e-02
6.510e-01,7.360e-02
6.553e-01,7.099e-02
6.597e-01,6.847e-02
6.640e-01,6.605e-02
6.684e-01,6.372e-02
6.727e-01,6.148e-02
6.771e-01,5.932e-02
6.815e-01,5.724e-02
6.858e-01,5.524e-02
6.902e-01,5.332e-02
6.945e-01,5.146e-02
6.989e-01,4.967e-02
7.032e-01,4.795e-02
7.076e-01,4.630e-02
7.119e-01,4.470e-02
7.163e-01,4.316e-02
7.206e-01,4.168e-02
7.250e-01,4.026e-02
7.294e-01,3.888e-02
7.337e-01,3.756e-02
7.381e-01,3.628e-02
7.424e-01,3.505e-02
7.468e-01,3.386e-02
7.511e-01,3.272e-02
7.555e-01,3.162e-02
7.598e-01,3.055e-02
7.642e-01,2.953e-02
7.685e-01,2.854e-02
7.729e-01,2.759e-02
7.773e-01,2.667e-02
7.816e-01,2.578e-02
7.860e-01,2.493e-02
7.903e-01,2.410e-02
7.947e-01,2.331e-02
7.990e-01,2.254e-02
8.034e-01,2.180e-02
8.077e-01,2.108e-02
8.121e-01,2.039e-02
8.164e-01,1.973e-02
8.208e-01,1.909e-02
8.251e-01,1.847e-02
8.295e-01,1.787e-02
8.339e-01,1.729e-02
8.382e-01,1.673e-02
8.426e-01,1.619e-02
8.469e-01,1.567e-02
8.513e-01,1.517e-02
8.556e-01,1.469e-02
8.600e-01,1.422e-02
8.643e-01,1.376e-02
8.687e-01,1.333e-02
