transmittance,probability_density
2.500e-03,4.981e-47
7.500e-03,5.336e-29
1.250e-02,4.184e-22
1.750e-02,4.430e-18
2.250e-02,2.427e-15
2.750e-02,2.556e-13
3.250e-02,9.552e-12
3.750e-02,1.765e-10
4.250e-02,1.966e-09
4.750e-02,1.501e-08
5.250e-02,8.561e-08
5.750e-02,3.875e-07
6.250e-02,1.455e-06
6.750e-02,4.689e-06
7.250e-02,1.329e-05
7.750e-02,3.383e-05
8.250e-02,7.853e-05
8.750e-02,1.684e-04
9.250e-02,3.369e-04
9.750e-02,6.348e-04
1.025e-01,1.134e-03
1.075e-01,1.934e-03
1.125e-01,3.161e-03
1.175e-01,4.976e-03
1.225e-01,7.576e-03
1.275e-01,1.119e-02
1.325e-01,1.607e-02
1.375e-01,2.251e-02
1.425e-01,3.082e-02
1.475e-01,4.133e-02
1.525e-01,5.436e-02
1.575e-01,7.025e-02
1.625e-01,8.932e-02
1.675e-01,1.119e-01
1.725e-01,1.382e-01
1.775e-01,1.684e-01
1.825e-01,2.029e-01
1.875e-01,2.417e-01
1.925e-01,2.849e-01
1.975e-01,3.326e-01
2.025e-01,3.847e-01
2.075e-01,4.411e-01
2.125e-01,5.018e-01
2.175e-01,5.666e-01
2.225e-01,6.352e-01
2.275e-01,7.073e-01
2.325e-01,7.826e-01
2.375e-01,8.609e-01
2.425e-01,9.416e-01
2.475e-01,1.024e+00
2.525e-01,1.109e+00
2.575e-01,1.194e+00
2.625e-01,1.281e+00
2.675e-01,1.368e+00
2.725e-01,1.454e+00
2.775e-01,1.541e+00
2.825e-01,1.626e+00
2.875e-01,1.710e+00
2.925e-01,1.792e+00
2.975e-01,1.872e+00
3.025e-01,1.950e+00
3.075e-01,2.025e+00
3.125e-01,2.097e+00
3.175e-01,2.165e+00
3.225e-01,2.231e+00
3.275e-01,2.292e+00
3.325e-01,2.350e+00
3.375e-01,2.404e+00
3.425e-01,2.454e+00
3.475e-01,2.500e+00
3.525e-01,2.541e+00
3.575e-01,2.578e+00
3.625e-01,2.612e+00
3.675e-01,2.640e+00
3.725e-01,2.665e+00
3.775e-01,2.686e+00
3.825e-01,2.702e+00
3.875e-01,2.715e+00
3.925e-01,2.724e+00
3.975e-01,2.729e+00
4.025e-01,2.730e+00
4.075e-01,2.728e+00
4.125e-01,2.723e+00
4.175e-01,2.714e+00
4.225e-01,2.702e+00
4.275e-01,2.687e+00
4.325e-01,2.670e+00
4.375e-01,2.649e+00
4.425e-01,2.627e+00
4.475e-01,2.602e+00
4.525e-01,2.575e+00
4.575e-01,2.546e+00
4.625e-01,2.515e+00
4.675e-01,2.482e+00
4.725e-01,2.448e+00
4.775e-01,2.412e+00
4.825e-01,2.375e+00
4.875e-01,2.337e+00
4.925e-01,2.298e+00
4.975e-01,2.258e+00
5.025e-01,2.217e+00
5.075e-01,2.176e+00
5.125e-01,2.134e+00
5.175e-01,2.092e+00
5.225e-01,2.049e+00
5.275e-01,2.006e+00
5.325e-01,1.963e+00
5.375e-01,1.919e+00
5.425e-01,1.876e+00
5.475e-01,1.833e+00
5.525e-01,1.790e+00
5.575e-01,1.747e+00
5.625e-01,1.704e+00
5.675e-01,1.662e+00
5.725e-01,1.620e+00
5.775e-01,1.579e+00
5.825e-01,1.537e+00
5.875e-01,1.497e+00
5.925e-01,1.457e+00
5.975e-01,1.417e+00
6.025e-01,1.378e+00
6.075e-01,1.340e+00
6.125e-01,1.302e+00
6.175e-01,1.265e+00
6.225e-01,1.229e+00
6.275e-01,1.193e+00
6.325e-01,1.158e+00
6.375e-01,1.124e+00
6.425e-01,1.090e+00
6.475e-01,1.058e+00
6.525e-01,1.026e+00
6.575e-01,9.941e-01
6.625e-01,9.634e-01
6.675e-01,9.335e-01
6.725e-01,9.043e-01
6.775e-01,8.758e-01
6.825e-01,8.480e-01
6.875e-01,8.209e-01
6.925e-01,7.945e-01
6.975e-01,7.688e-01
7.025e-01,7.438e-01
7.075e-01,7.195e-01
7.125e-01,6.959e-01
7.175e-01,6.729e-01
7.225e-01,6.505e-01
7.275e-01,6.288e-01
7.325e-01,6.077e-01
7.375e-01,5.873e-01
7.425e-01,5.674e-01
7.475e-01,5.481e-01
7.525e-01,5.295e-01
7.575e-01,5.113e-01
7.625e-01,4.938e-01
7.675e-01,4.767e-01
7.725e-01,4.603e-01
7.775e-01,4.443e-01
7.825e-01,4.288e-01
7.875e-01,4.138e-01
7.925e-01,3.993e-01
7.975e-01,3.853e-01
8.025e-01,3.717e-01
8.075e-01,3.586e-01
8.125e-01,3.459e-01
8.175e-01,3.336e-01
8.225e-01,3.217e-01
8.275e-01,3.102e-01
8.325e-01,2.991e-01
8.375e-01,2.884e-01
8.425e-01,2.780e-01
8.475e-01,2.680e-01
8.525e-01,2.583e-01
8.575e-01,2.490e-01
8.625e-01,2.400e-01
8.675e-01,2.313e-01
8.725e-01,2.229e-01
8.775e-01,2.148e-01
8.825e-01,2.069e-01
8.875e-01,1.994e-01
8.925e-01,1.921e-01
8.975e-01,1.850e-01
9.025e-01,1.783e-01
9.075e-01,1.717e-01
9.125e-01,1.654e-01
9.175e-01,1.593e-01
9.225e-01,1.535e-01
9.275e-01,1.478e-01
9.325e-01,1.423e-01
9.375e-01,1.371e-01
9.425e-01,1.320e-01
9.475e-01,1.271e-01
9.525e-01,1.224e-01
9.575e-01,1.179e-01
9.625e-01,1.135e-01
9.675e-01,1.093e-01
9.725e-01,1.052e-01
9.775e-01,1.013e-01
9.825e-01,9.753e-02
9.875e-01,9.390e-02
9.925e-01,9.040e-02
9.975e-01,8.703e-02
