transmittance,probability_density
2.500e-03,9.279e-68
7.500e-03,1.446e-42
1.250e-02,7.541e-33
1.750e-02,3.851e-27
2.250e-02,3.093e-23
2.750e-02,2.443e-20
3.250e-02,4.477e-18
3.750e-02,3.032e-16
4.250e-02,1.003e-14
4.750e-02,1.941e-13
5.250e-02,2.480e-12
5.750e-02,2.280e-11
6.250e-02,1.605e-10
6.750e-02,9.080e-10
7.250e-02,4.276e-09
7.750e-02,1.725e-08
8.250e-02,6.094e-08
8.750e-02,1.921e-07
9.250e-02,5.481e-07
9.750e-02,1.434e-06
1.025e-01,3.473e-06
1.075e-01,7.858e-06
1.125e-01,1.673e-05
1.175e-01,3.374e-05
1.225e-01,6.477e-05
1.275e-01,1.189e-04
1.325e-01,2.098e-04
1.375e-01,3.568e-04
1.425e-01,5.867e-04
1.475e-01,9.357e-04
1.525e-01,1.451e-03
1.575e-01,2.191e-03
1.625e-01,3.232e-03
1.675e-01,4.662e-03
1.725e-01,6.588e-03
1.775e-01,9.132e-03
1.825e-01,1.244e-02
1.875e-01,1.665e-02
1.925e-01,2.196e-02
1.975e-01,2.854e-02
2.025e-01,3.659e-02
2.075e-01,4.631e-02
2.125e-01,5.791e-02
2.175e-01,7.161e-02
2.225e-01,8.760e-02
2.275e-01,1.061e-01
2.325e-01,1.273e-01
2.375e-01,1.513e-01
2.425e-01,1.784e-01
2.475e-01,2.086e-01
2.525e-01,2.421e-01
2.575e-01,2.789e-01
2.625e-01,3.190e-01
2.675e-01,3.626e-01
2.725e-01,4.096e-01
2.775e-01,4.600e-01
2.825e-01,5.136e-01
2.875e-01,5.703e-01
2.925e-01,6.301e-01
2.975e-01,6.927e-01
3.025e-01,7.579e-01
3.075e-01,8.256e-01
3.125e-01,8.954e-01
3.175e-01,9.672e-01
3.225e-01,1.041e+00
3.275e-01,1.115e+00
3.325e-01,1.191e+00
3.375e-01,1.267e+00
3.425e-01,1.344e+00
3.475e-01,1.421e+00
3.525e-01,1.498e+00
3.575e-01,1.574e+00
3.625e-01,1.649e+00
3.675e-01,1.723e+00
3.725e-01,1.796e+00
3.775e-01,1.867e+00
3.825e-01,1.935e+00
3.875e-01,2.002e+00
3.925e-01,2.067e+00
3.975e-01,2.128e+00
4.025e-01,2.187e+00
4.075e-01,2.243e+00
4.125e-01,2.296e+00
4.175e-01,2.345e+00
4.225e-01,2.391e+00
4.275e-01,2.434e+00
4.325e-01,2.473e+00
4.375e-01,2.509e+00
4.425e-01,2.541e+00
4.475e-01,2.570e+00
4.525e-01,2.594e+00
4.575e-01,2.616e+00
4.625e-01,2.633e+00
4.675e-01,2.647e+00
4.725e-01,2.658e+00
4.775e-01,2.665e+00
4.825e-01,2.669e+00
4.875e-01,2.670e+00
4.925e-01,2.668e+00
4.975e-01,2.662e+00
5.025e-01,2.654e+00
5.075e-01,2.643e+00
5.125e-01,2.629e+00
5.175e-01,2.613e+00
5.225e-01,2.594e+00
5.275e-01,2.573e+00
5.325e-01,2.550e+00
5.375e-01,2.524e+00
5.425e-01,2.497e+00
5.475e-01,2.468e+00
5.525e-01,2.437e+00
5.575e-01,2.405e+00
5.625e-01,2.371e+00
5.675e-01,2.336e+00
5.725e-01,2.300e+00
5.775e-01,2.263e+00
5.825e-01,2.225e+00
5.875e-01,2.186e+00
5.925e-01,2.146e+00
5.975e-01,2.106e+00
6.025e-01,2.065e+00
6.075e-01,2.023e+00
6.125e-01,1.982e+00
6.175e-01,1.940e+00
6.225e-01,1.898e+00
6.275e-01,1.856e+00
6.325e-01,1.814e+00
6.375e-01,1.771e+00
6.425e-01,1.729e+00
6.475e-01,1.687e+00
6.525e-01,1.646e+00
6.575e-01,1.605e+00
6.625e-01,1.563e+00
6.675e-01,1.523e+00
6.725e-01,1.483e+00
6.775e-01,1.443e+00
6.825e-01,1.404e+00
6.875e-01,1.365e+00
6.925e-01,1.327e+00
6.975e-01,1.289e+00
7.025e-01,1.252e+00
7.075e-01,1.216e+00
7.125e-01,1.180e+00
7.175e-01,1.145e+00
7.225e-01,1.111e+00
7.275e-01,1.077e+00
7.325e-01,1.044e+00
7.375e-01,1.012e+00
7.425e-01,9.800e-01
7.475e-01,9.491e-01
7.525e-01,9.189e-01
7.575e-01,8.894e-01
7.625e-01,8.607e-01
7.675e-01,8.326e-01
7.725e-01,8.053e-01
7.775e-01,7.786e-01
7.825e-01,7.527e-01
7.875e-01,7.274e-01
7.925e-01,7.029e-01
7.975e-01,6.790e-01
8.025e-01,6.557e-01
8.075e-01,6.332e-01
8.125e-01,6.113e-01
8.175e-01,5.900e-01
8.225e-01,5.693e-01
8.275e-01,5.493e-01
8.325e-01,5.298e-01
8.375e-01,5.110e-01
8.425e-01,4.927e-01
8.475e-01,4.750e-01
8.525e-01,4.579e-01
8.575e-01,4.413e-01
8.625e-01,4.252e-01
8.675e-01,4.097e-01
8.725e-01,3.946e-01
8.775e-01,3.801e-01
8.825e-01,3.660e-01
8.875e-01,3.524e-01
8.925e-01,3.393e-01
8.975e-01,3.266e-01
9.025e-01,3.143e-01
9.075e-01,3.025e-01
9.125e-01,2.911e-01
9.175e-01,2.800e-01
9.225e-01,2.694e-01
9.275e-01,2.591e-01
9.325e-01,2.492e-01
9.375e-01,2.397e-01
9.425e-01,2.304e-01
9.475e-01,2.215e-01
9.525e-01,2.130e-01
9.575e-01,2.047e-01
9.625e-01,1.968e-01
9.675e-01,1.891e-01
9.725e-01,1.817e-01
9.775e-01,1.746e-01
9.825e-01,1.678e-01
9.875e-01,1.612e-01
9.925e-01,1.548e-01
9.975e-01,1.487e-01
