transmittance,probability_density
2.500e-03,3.593e-60
7.500e-03,1.355e-37
1.250e-02,6.580e-29
1.750e-02,8.157e-24
2.250e-02,2.456e-20
2.750e-02,9.294e-18
3.250e-02,9.526e-16
3.750e-02,4.013e-14
4.250e-02,8.923e-13
4.750e-02,1.229e-11
5.250e-02,1.169e-10
5.750e-02,8.297e-10
6.250e-02,4.644e-09
6.750e-02,2.138e-08
7.250e-02,8.365e-08
7.750e-02,2.851e-07
8.250e-02,8.640e-07
8.750e-02,2.366e-06
9.250e-02,5.930e-06
9.750e-02,1.376e-05
1.025e-01,2.982e-05
1.075e-01,6.083e-05
1.125e-01,1.176e-04
1.175e-01,2.166e-04
1.225e-01,3.820e-04
1.275e-01,6.478e-04
1.325e-01,1.060e-03
1.375e-01,1.679e-03
1.425e-01,2.583e-03
1.475e-01,3.866e-03
1.525e-01,5.644e-03
1.575e-01,8.053e-03
1.625e-01,1.125e-02
1.675e-01,1.541e-02
1.725e-01,2.073e-02
1.775e-01,2.742e-02
1.825e-01,3.570e-02
1.875e-01,4.580e-02
1.925e-01,5.797e-02
1.975e-01,7.243e-02
2.025e-01,8.943e-02
2.075e-01,1.092e-01
2.125e-01,1.319e-01
2.175e-01,1.577e-01
2.225e-01,1.869e-01
2.275e-01,2.195e-01
2.325e-01,2.557e-01
2.375e-01,2.954e-01
2.425e-01,3.389e-01
2.475e-01,3.859e-01
2.525e-01,4.366e-01
2.575e-01,4.908e-01
2.625e-01,5.483e-01
2.675e-01,6.092e-01
2.725e-01,6.731e-01
2.775e-01,7.398e-01
2.825e-01,8.091e-01
2.875e-01,8.808e-01
2.925e-01,9.545e-01
2.975e-01,1.030e+00
3.025e-01,1.107e+00
3.075e-01,1.185e+00
3.125e-01,1.263e+00
3.175e-01,1.342e+00
3.225e-01,1.421e+00
3.275e-01,1.500e+00
3.325e-01,1.578e+00
3.375e-01,1.655e+00
3.425e-01,1.731e+00
3.475e-01,1.805e+00
3.525e-01,1.878e+00
3.575e-01,1.948e+00
3.625e-01,2.016e+00
3.675e-01,2.081e+00
3.725e-01,2.144e+00
3.775e-01,2.203e+00
3.825e-01,2.260e+00
3.875e-01,2.313e+00
3.925e-01,2.362e+00
3.975e-01,2.408e+00
4.025e-01,2.451e+00
4.075e-01,2.490e+00
4.125e-01,2.525e+00
4.175e-01,2.556e+00
4.225e-01,2.584e+00
4.275e-01,2.608e+00
4.325e-01,2.628e+00
4.375e-01,2.644e+00
4.425e-01,2.657e+00
4.475e-01,2.667e+00
4.525e-01,2.673e+00
4.575e-01,2.675e+00
4.625e-01,2.675e+00
4.675e-01,2.671e+00
4.725e-01,2.664e+00
4.775e-01,2.655e+00
4.825e-01,2.642e+00
4.875e-01,2.627e+00
4.925e-01,2.609e+00
4.975e-01,2.589e+00
5.025e-01,2.567e+00
5.075e-01,2.542e+00
5.125e-01,2.516e+00
5.175e-01,2.488e+00
5.225e-01,2.458e+00
5.275e-01,2.426e+00
5.325e-01,2.393e+00
5.375e-01,2.358e+00
5.425e-01,2.323e+00
5.475e-01,2.286e+00
5.525e-01,2.248e+00
5.575e-01,2.209e+00
5.625e-01,2.170e+00
5.675e-01,2.130e+00
5.725e-01,2.089e+00
5.775e-01,2.048e+00
5.825e-01,2.007e+00
5.875e-01,1.965e+00
5.925e-01,1.923e+00
5.975e-01,1.881e+00
6.025e-01,1.839e+00
6.075e-01,1.797e+00
6.125e-01,1.755e+00
6.175e-01,1.713e+00
6.225e-01,1.671e+00
6.275e-01,1.630e+00
6.325e-01,1.589e+00
6.375e-01,1.548e+00
6.425e-01,1.508e+00
6.475e-01,1.468e+00
6.525e-01,1.429e+00
6.575e-01,1.390e+00
6.625e-01,1.352e+00
6.675e-01,1.314e+00
6.725e-01,1.277e+00
6.775e-01,1.241e+00
6.825e-01,1.205e+00
6.875e-01,1.170e+00
6.925e-01,1.135e+00
6.975e-01,1.101e+00
7.025e-01,1.068e+00
7.075e-01,1.036e+00
7.125e-01,1.004e+00
7.175e-01,9.728e-01
7.225e-01,9.425e-01
7.275e-01,9.128e-01
7.325e-01,8.839e-01
7.375e-01,8.556e-01
7.425e-01,8.281e-01
7.475e-01,8.012e-01
7.525e-01,7.750e-01
7.575e-01,7.496e-01
7.625e-01,7.248e-01
7.675e-01,7.006e-01
7.725e-01,6.771e-01
7.775e-01,6.543e-01
7.825e-01,6.322e-01
7.875e-01,6.106e-01
7.925e-01,5.897e-01
7.975e-01,5.694e-01
8.025e-01,5.497e-01
8.075e-01,5.306e-01
8.125e-01,5.120e-01
8.175e-01,4.941e-01
8.225e-01,4.766e-01
8.275e-01,4.598e-01
8.325e-01,4.434e-01
8.375e-01,4.276e-01
8.425e-01,4.123e-01
8.475e-01,3.974e-01
8.525e-01,3.831e-01
8.575e-01,3.692e-01
8.625e-01,3.558e-01
8.675e-01,3.428e-01
8.725e-01,3.303e-01
8.775e-01,3.182e-01
8.825e-01,3.064e-01
8.875e-01,2.951e-01
8.925e-01,2.842e-01
8.975e-01,2.736e-01
9.025e-01,2.635e-01
9.075e-01,2.536e-01
9.125e-01,2.441e-01
9.175e-01,2.350e-01
9.225e-01,2.261e-01
9.275e-01,2.176e-01
9.325e-01,2.094e-01
9.375e-01,2.015e-01
9.425e-01,1.938e-01
9.475e-01,1.864e-01
9.525e-01,1.793e-01
9.575e-01,1.725e-01
9.625e-01,1.659e-01
9.675e-01,1.595e-01
9.725e-01,1.534e-01
9.775e-01,1.475e-01
9.825e-01,1.418e-01
9.875e-01,1.364e-01
9.925e-01,1.311e-01
9.975e-01,1.260e-01
