transmittance,probability_density
2.500e-03,1.281e-28
7.500e-03,5.172e-17
1.250e-02,1.193e-12
1.750e-02,3.910e-10
2.250e-02,1.929e-08
2.750e-02,3.337e-07
3.250e-02,2.997e-06
3.750e-02,1.728e-05
4.250e-02,7.257e-05
4.750e-02,2.408e-04
5.250e-02,6.662e-04
5.750e-02,1.598e-03
6.250e-02,3.416e-03
6.750e-02,6.647e-03
7.250e-02,1.196e-02
7.750e-02,2.015e-02
8.250e-02,3.209e-02
8.750e-02,4.871e-02
9.250e-02,7.092e-02
9.750e-02,9.960e-02
1.025e-01,1.355e-01
1.075e-01,1.792e-01
1.125e-01,2.311e-01
1.175e-01,2.916e-01
1.225e-01,3.605e-01
1.275e-01,4.379e-01
1.325e-01,5.233e-01
1.375e-01,6.163e-01
1.425e-01,7.161e-01
1.475e-01,8.221e-01
1.525e-01,9.332e-01
1.575e-01,1.049e+00
1.625e-01,1.167e+00
1.675e-01,1.288e+00
1.725e-01,1.410e+00
1.775e-01,1.533e+00
1.825e-01,1.654e+00
1.875e-01,1.774e+00
1.925e-01,1.892e+00
1.975e-01,2.006e+00
2.025e-01,2.116e+00
2.075e-01,2.221e+00
2.125e-01,2.322e+00
2.175e-01,2.416e+00
2.225e-01,2.505e+00
2.275e-01,2.587e+00
2.325e-01,2.663e+00
2.375e-01,2.732e+00
2.425e-01,2.795e+00
2.475e-01,2.850e+00
2.525e-01,2.899e+00
2.575e-01,2.941e+00
2.625e-01,2.976e+00
2.675e-01,3.005e+00
2.725e-01,3.027e+00
2.775e-01,3.043e+00
2.825e-01,3.054e+00
2.875e-01,3.058e+00
2.925e-01,3.058e+00
2.975e-01,3.052e+00
3.025e-01,3.041e+00
3.075e-01,3.026e+00
3.125e-01,3.007e+00
3.175e-01,2.983e+00
3.225e-01,2.956e+00
3.275e-01,2.926e+00
3.325e-01,2.892e+00
3.375e-01,2.856e+00
3.425e-01,2.817e+00
3.475e-01,2.776e+00
3.525e-01,2.732e+00
3.575e-01,2.687e+00
3.625e-01,2.640e+00
3.675e-01,2.592e+00
3.725e-01,2.543e+00
3.775e-01,2.492e+00
3.825e-01,2.441e+00
3.875e-01,2.389e+00
3.925e-01,2.337e+00
3.975e-01,2.284e+00
4.025e-01,2.231e+00
4.075e-01,2.178e+00
4.125e-01,2.125e+00
4.175e-01,2.072e+00
4.225e-01,2.020e+00
4.275e-01,1.968e+00
4.325e-01,1.916e+00
4.375e-01,1.865e+00
4.425e-01,1.814e+00
4.475e-01,1.764e+00
4.525e-01,1.714e+00
4.575e-01,1.666e+00
4.625e-01,1.618e+00
4.675e-01,1.571e+00
4.725e-01,1.525e+00
4.775e-01,1.479e+00
4.825e-01,1.435e+00
4.875e-01,1.391e+00
4.925e-01,1.349e+00
4.975e-01,1.307e+00
5.025e-01,1.266e+00
5.075e-01,1.226e+00
5.125e-01,1.187e+00
5.175e-01,1.150e+00
5.225e-01,1.113e+00
5.275e-01,1.077e+00
5.325e-01,1.042e+00
5.375e-01,1.008e+00
5.425e-01,9.745e-01
5.475e-01,9.423e-01
5.525e-01,9.110e-01
5.575e-01,8.806e-01
5.625e-01,8.510e-01
5.675e-01,8.223e-01
5.725e-01,7.945e-01
5.775e-01,7.675e-01
5.825e-01,7.413e-01
5.875e-01,7.159e-01
5.925e-01,6.913e-01
5.975e-01,6.675e-01
6.025e-01,6.444e-01
6.075e-01,6.221e-01
6.125e-01,6.005e-01
6.175e-01,5.795e-01
6.225e-01,5.593e-01
6.275e-01,5.397e-01
6.325e-01,5.207e-01
6.375e-01,5.024e-01
6.425e-01,4.847e-01
6.475e-01,4.675e-01
6.525e-01,4.510e-01
6.575e-01,4.350e-01
6.625e-01,4.195e-01
6.675e-01,4.046e-01
6.725e-01,3.902e-01
6.775e-01,3.763e-01
6.825e-01,3.628e-01
6.875e-01,3.499e-01
6.925e-01,3.373e-01
6.975e-01,3.253e-01
7.025e-01,3.136e-01
7.075e-01,3.023e-01
7.125e-01,2.915e-01
7.175e-01,2.810e-01
7.225e-01,2.709e-01
7.275e-01,2.611e-01
7.325e-01,2.517e-01
7.375e-01,2.426e-01
7.425e-01,2.339e-01
7.475e-01,2.254e-01
7.525e-01,2.173e-01
7.575e-01,2.095e-01
7.625e-01,2.019e-01
7.675e-01,1.946e-01
7.725e-01,1.876e-01
7.775e-01,1.808e-01
7.825e-01,1.743e-01
7.875e-01,1.680e-01
7.925e-01,1.619e-01
7.975e-01,1.560e-01
8.025e-01,1.504e-01
8.075e-01,1.450e-01
8.125e-01,1.397e-01
8.175e-01,1.347e-01
8.225e-01,1.298e-01
8.275e-01,1.251e-01
8.325e-01,1.206e-01
8.375e-01,1.163e-01
8.425e-01,1.121e-01
8.475e-01,1.080e-01
8.525e-01,1.042e-01
8.575e-01,1.004e-01
8.625e-01,9.679e-02
8.675e-01,9.330e-02
8.725e-01,8.995e-02
8.775e-01,8.671e-02
8.825e-01,8.360e-02
8.875e-01,8.060e-02
8.925e-01,7.770e-02
8.975e-01,7.492e-02
9.025e-01,7.223e-02
9.075e-01,6.965e-02
9.125e-01,6.715e-02
9.175e-01,6.475e-02
9.225e-01,6.244e-02
9.275e-01,6.021e-02
9.325e-01,5.806e-02
9.375e-01,5.599e-02
9.425e-01,5.399e-02
9.475e-01,5.207e-02
9.525e-01,5.022e-02
9.575e-01,4.843e-02
9.625e-01,4.671e-02
9.675e-01,4.506e-02
9.725e-01,4.346e-02
9.775e-01,4.192e-02
9.825e-01,4.043e-02
9.875e-01,3.901e-02
9.925e-01,3.763e-02
9.975e-01,3.630e-02
