transmittance,probability_density
2.500e-03,9.216e-37
7.500e-03,2.645e-22
1.250e-02,8.117e-17
1.750e-02,1.245e-13
2.250e-02,1.788e-11
2.750e-02,6.898e-10
3.250e-02,1.167e-08
3.750e-02,1.128e-07
4.250e-02,7.309e-07
4.750e-02,3.511e-06
5.250e-02,1.339e-05
5.750e-02,4.259e-05
6.250e-02,1.170e-04
6.750e-02,2.847e-04
7.250e-02,6.268e-04
7.750e-02,1.268e-03
8.250e-02,2.388e-03
8.750e-02,4.225e-03
9.250e-02,7.086e-03
9.750e-02,1.134e-02
1.025e-01,1.741e-02
1.075e-01,2.577e-02
1.125e-01,3.693e-02
1.175e-01,5.141e-02
1.225e-01,6.973e-02
1.275e-01,9.237e-02
1.325e-01,1.198e-01
1.375e-01,1.524e-01
1.425e-01,1.904e-01
1.475e-01,2.342e-01
1.525e-01,2.839e-01
1.575e-01,3.394e-01
1.625e-01,4.008e-01
1.675e-01,4.679e-01
1.725e-01,5.405e-01
1.775e-01,6.182e-01
1.825e-01,7.006e-01
1.875e-01,7.872e-01
1.925e-01,8.776e-01
1.975e-01,9.712e-01
2.025e-01,1.067e+00
2.075e-01,1.165e+00
2.125e-01,1.265e+00
2.175e-01,1.365e+00
2.225e-01,1.465e+00
2.275e-01,1.565e+00
2.325e-01,1.663e+00
2.375e-01,1.760e+00
2.425e-01,1.854e+00
2.475e-01,1.946e+00
2.525e-01,2.035e+00
2.575e-01,2.120e+00
2.625e-01,2.202e+00
2.675e-01,2.279e+00
2.725e-01,2.352e+00
2.775e-01,2.420e+00
2.825e-01,2.483e+00
2.875e-01,2.542e+00
2.925e-01,2.595e+00
2.975e-01,2.643e+00
3.025e-01,2.686e+00
3.075e-01,2.724e+00
3.125e-01,2.757e+00
3.175e-01,2.784e+00
3.225e-01,2.807e+00
3.275e-01,2.825e+00
3.325e-01,2.838e+00
3.375e-01,2.847e+00
3.425e-01,2.851e+00
3.475e-01,2.852e+00
3.525e-01,2.847e+00
3.575e-01,2.840e+00
3.625e-01,2.828e+00
3.675e-01,2.813e+00
3.725e-01,2.795e+00
3.775e-01,2.773e+00
3.825e-01,2.749e+00
3.875e-01,2.722e+00
3.925e-01,2.693e+00
3.975e-01,2.661e+00
4.025e-01,2.627e+00
4.075e-01,2.591e+00
4.125e-01,2.554e+00
4.175e-01,2.515e+00
4.225e-01,2.475e+00
4.275e-01,2.433e+00
4.325e-01,2.390e+00
4.375e-01,2.347e+00
4.425e-01,2.302e+00
4.475e-01,2.257e+00
4.525e-01,2.211e+00
4.575e-01,2.165e+00
4.625e-01,2.119e+00
4.675e-01,2.073e+00
4.725e-01,2.026e+00
4.775e-01,1.979e+00
4.825e-01,1.933e+00
4.875e-01,1.886e+00
4.925e-01,1.840e+00
4.975e-01,1.794e+00
5.025e-01,1.749e+00
5.075e-01,1.704e+00
5.125e-01,1.659e+00
5.175e-01,1.615e+00
5.225e-01,1.572e+00
5.275e-01,1.529e+00
5.325e-01,1.487e+00
5.375e-01,1.445e+00
5.425e-01,1.404e+00
5.475e-01,1.364e+00
5.525e-01,1.324e+00
5.575e-01,1.286e+00
5.625e-01,1.248e+00
5.675e-01,1.211e+00
5.725e-01,1.174e+00
5.775e-01,1.139e+00
5.825e-01,1.104e+00
5.875e-01,1.070e+00
5.925e-01,1.037e+00
5.975e-01,1.005e+00
6.025e-01,9.731e-01
6.075e-01,9.423e-01
6.125e-01,9.124e-01
6.175e-01,8.832e-01
6.225e-01,8.548e-01
6.275e-01,8.271e-01
6.325e-01,8.002e-01
6.375e-01,7.740e-01
6.425e-01,7.486e-01
6.475e-01,7.239e-01
6.525e-01,6.999e-01
6.575e-01,6.766e-01
6.625e-01,6.540e-01
6.675e-01,6.320e-01
6.725e-01,6.107e-01
6.775e-01,5.901e-01
6.825e-01,5.700e-01
6.875e-01,5.506e-01
6.925e-01,5.318e-01
6.975e-01,5.136e-01
7.025e-01,4.959e-01
7.075e-01,4.788e-01
7.125e-01,4.623e-01
7.175e-01,4.463e-01
7.225e-01,4.308e-01
7.275e-01,4.158e-01
7.325e-01,4.013e-01
7.375e-01,3.872e-01
7.425e-01,3.737e-01
7.475e-01,3.605e-01
7.525e-01,3.478e-01
7.575e-01,3.356e-01
7.625e-01,3.237e-01
7.675e-01,3.123e-01
7.725e-01,3.012e-01
7.775e-01,2.905e-01
7.825e-01,2.802e-01
7.875e-01,2.702e-01
7.925e-01,2.606e-01
7.975e-01,2.513e-01
8.025e-01,2.423e-01
8.075e-01,2.336e-01
8.125e-01,2.253e-01
8.175e-01,2.172e-01
8.225e-01,2.094e-01
8.275e-01,2.019e-01
8.325e-01,1.946e-01
8.375e-01,1.876e-01
8.425e-01,1.809e-01
8.475e-01,1.744e-01
8.525e-01,1.681e-01
8.575e-01,1.620e-01
8.625e-01,1.562e-01
8.675e-01,1.505e-01
8.725e-01,1.451e-01
8.775e-01,1.399e-01
8.825e-01,1.348e-01
8.875e-01,1.299e-01
8.925e-01,1.252e-01
8.975e-01,1.207e-01
9.025e-01,1.163e-01
9.075e-01,1.121e-01
9.125e-01,1.081e-01
9.175e-01,1.041e-01
9.225e-01,1.004e-01
9.275e-01,9.674e-02
9.325e-01,9.323e-02
9.375e-01,8.986e-02
9.425e-01,8.660e-02
9.475e-01,8.346e-02
9.525e-01,8.044e-02
9.575e-01,7.753e-02
9.625e-01,7.472e-02
9.675e-01,7.201e-02
9.725e-01,6.941e-02
9.775e-01,6.689e-02
9.825e-01,6.447e-02
9.875e-01,6.214e-02
9.925e-01,5.989e-02
9.975e-01,5.773e-02
