transmittance,probability_density
2.500e-03,2.197e-41
7.500e-03,2.574e-25
1.250e-02,3.407e-19
1.750e-02,1.249e-15
2.250e-02,3.281e-13
2.750e-02,1.991e-11
3.250e-02,4.814e-10
3.750e-02,6.234e-09
4.250e-02,5.157e-08
4.750e-02,3.053e-07
5.250e-02,1.396e-06
5.750e-02,5.207e-06
6.250e-02,1.647e-05
6.750e-02,4.548e-05
7.250e-02,1.122e-04
7.750e-02,2.518e-04
8.250e-02,5.211e-04
8.750e-02,1.005e-03
9.250e-02,1.826e-03
9.750e-02,3.145e-03
1.025e-01,5.171e-03
1.075e-01,8.158e-03
1.125e-01,1.241e-02
1.175e-01,1.826e-02
1.225e-01,2.608e-02
1.275e-01,3.629e-02
1.325e-01,4.928e-02
1.375e-01,6.547e-02
1.425e-01,8.527e-02
1.475e-01,1.090e-01
1.525e-01,1.371e-01
1.575e-01,1.698e-01
1.625e-01,2.073e-01
1.675e-01,2.498e-01
1.725e-01,2.974e-01
1.775e-01,3.501e-01
1.825e-01,4.078e-01
1.875e-01,4.704e-01
1.925e-01,5.378e-01
1.975e-01,6.097e-01
2.025e-01,6.856e-01
2.075e-01,7.654e-01
2.125e-01,8.485e-01
2.175e-01,9.345e-01
2.225e-01,1.023e+00
2.275e-01,1.113e+00
2.325e-01,1.205e+00
2.375e-01,1.298e+00
2.425e-01,1.390e+00
2.475e-01,1.483e+00
2.525e-01,1.575e+00
2.575e-01,1.666e+00
2.625e-01,1.755e+00
2.675e-01,1.843e+00
2.725e-01,1.927e+00
2.775e-01,2.009e+00
2.825e-01,2.088e+00
2.875e-01,2.163e+00
2.925e-01,2.235e+00
2.975e-01,2.303e+00
3.025e-01,2.366e+00
3.075e-01,2.425e+00
3.125e-01,2.480e+00
3.175e-01,2.530e+00
3.225e-01,2.576e+00
3.275e-01,2.617e+00
3.325e-01,2.653e+00
3.375e-01,2.685e+00
3.425e-01,2.712e+00
3.475e-01,2.735e+00
3.525e-01,2.753e+00
3.575e-01,2.767e+00
3.625e-01,2.777e+00
3.675e-01,2.783e+00
3.725e-01,2.784e+00
3.775e-01,2.782e+00
3.825e-01,2.777e+00
3.875e-01,2.767e+00
3.925e-01,2.755e+00
3.975e-01,2.739e+00
4.025e-01,2.721e+00
4.075e-01,2.699e+00
4.125e-01,2.676e+00
4.175e-01,2.649e+00
4.225e-01,2.621e+00
4.275e-01,2.590e+00
4.325e-01,2.557e+00
4.375e-01,2.523e+00
4.425e-01,2.487e+00
4.475e-01,2.449e+00
4.525e-01,2.411e+00
4.575e-01,2.371e+00
4.625e-01,2.330e+00
4.675e-01,2.288e+00
4.725e-01,2.246e+00
4.775e-01,2.202e+00
4.825e-01,2.159e+00
4.875e-01,2.115e+00
4.925e-01,2.070e+00
4.975e-01,2.026e+00
5.025e-01,1.981e+00
5.075e-01,1.936e+00
5.125e-01,1.892e+00
5.175e-01,1.847e+00
5.225e-01,1.803e+00
5.275e-01,1.759e+00
5.325e-01,1.715e+00
5.375e-01,1.672e+00
5.425e-01,1.629e+00
5.475e-01,1.586e+00
5.525e-01,1.544e+00
5.575e-01,1.503e+00
5.625e-01,1.462e+00
5.675e-01,1.422e+00
5.725e-01,1.382e+00
5.775e-01,1.343e+00
5.825e-01,1.305e+00
5.875e-01,1.267e+00
5.925e-01,1.230e+00
5.975e-01,1.194e+00
6.025e-01,1.159e+00
6.075e-01,1.124e+00
6.125e-01,1.090e+00
6.175e-01,1.057e+00
6.225e-01,1.025e+00
6.275e-01,9.931e-01
6.325e-01,9.623e-01
6.375e-01,9.321e-01
6.425e-01,9.028e-01
6.475e-01,8.741e-01
6.525e-01,8.463e-01
6.575e-01,8.191e-01
6.625e-01,7.927e-01
6.675e-01,7.669e-01
6.725e-01,7.419e-01
6.775e-01,7.176e-01
6.825e-01,6.940e-01
6.875e-01,6.710e-01
6.925e-01,6.487e-01
6.975e-01,6.270e-01
7.025e-01,6.060e-01
7.075e-01,5.856e-01
7.125e-01,5.658e-01
7.175e-01,5.466e-01
7.225e-01,5.280e-01
7.275e-01,5.100e-01
7.325e-01,4.925e-01
7.375e-01,4.755e-01
7.425e-01,4.591e-01
7.475e-01,4.433e-01
7.525e-01,4.279e-01
7.575e-01,4.130e-01
7.625e-01,3.986e-01
7.675e-01,3.846e-01
7.725e-01,3.712e-01
7.775e-01,3.581e-01
7.825e-01,3.455e-01
7.875e-01,3.333e-01
7.925e-01,3.215e-01
7.975e-01,3.101e-01
8.025e-01,2.991e-01
8.075e-01,2.885e-01
8.125e-01,2.782e-01
8.175e-01,2.683e-01
8.225e-01,2.587e-01
8.275e-01,2.494e-01
8.325e-01,2.405e-01
8.375e-01,2.318e-01
8.425e-01,2.235e-01
8.475e-01,2.154e-01
8.525e-01,2.077e-01
8.575e-01,2.002e-01
8.625e-01,1.929e-01
8.675e-01,1.860e-01
8.725e-01,1.792e-01
8.775e-01,1.727e-01
8.825e-01,1.665e-01
8.875e-01,1.604e-01
8.925e-01,1.546e-01
8.975e-01,1.490e-01
9.025e-01,1.435e-01
9.075e-01,1.383e-01
9.125e-01,1.333e-01
9.175e-01,1.284e-01
9.225e-01,1.237e-01
9.275e-01,1.192e-01
9.325e-01,1.148e-01
9.375e-01,1.106e-01
9.425e-01,1.066e-01
9.475e-01,1.027e-01
9.525e-01,9.893e-02
9.575e-01,9.531e-02
9.625e-01,9.182e-02
9.675e-01,8.846e-02
9.725e-01,8.522e-02
9.775e-01,8.209e-02
9.825e-01,7.908e-02
9.875e-01,7.618e-02
9.925e-01,7.339e-02
9.975e-01,7.070e-02
