transmittance,probability_density
2.500e-03,4.976e-25
7.500e-03,1.092e-14
1.250e-02,7.995e-11
1.750e-02,1.321e-08
2.250e-02,4.056e-07
2.750e-02,4.914e-06
3.250e-02,3.332e-05
3.750e-02,1.527e-04
4.250e-02,5.291e-04
4.750e-02,1.489e-03
5.250e-02,3.573e-03
5.750e-02,7.562e-03
6.250e-02,1.447e-02
6.750e-02,2.548e-02
7.250e-02,4.190e-02
7.750e-02,6.506e-02
8.250e-02,9.620e-02
8.750e-02,1.364e-01
9.250e-02,1.865e-01
9.750e-02,2.472e-01
1.025e-01,3.186e-01
1.075e-01,4.008e-01
1.125e-01,4.933e-01
1.175e-01,5.957e-01
1.225e-01,7.070e-01
1.275e-01,8.262e-01
1.325e-01,9.520e-01
1.375e-01,1.083e+00
1.425e-01,1.219e+00
1.475e-01,1.357e+00
1.525e-01,1.496e+00
1.575e-01,1.635e+00
1.625e-01,1.773e+00
1.675e-01,1.908e+00
1.725e-01,2.039e+00
1.775e-01,2.167e+00
1.825e-01,2.288e+00
1.875e-01,2.404e+00
1.925e-01,2.512e+00
1.975e-01,2.614e+00
2.025e-01,2.707e+00
2.075e-01,2.793e+00
2.125e-01,2.870e+00
2.175e-01,2.940e+00
2.225e-01,3.001e+00
2.275e-01,3.054e+00
2.325e-01,3.099e+00
2.375e-01,3.135e+00
2.425e-01,3.165e+00
2.475e-01,3.186e+00
2.525e-01,3.201e+00
2.575e-01,3.209e+00
2.625e-01,3.210e+00
2.675e-01,3.205e+00
2.725e-01,3.195e+00
2.775e-01,3.179e+00
2.825e-01,3.158e+00
2.875e-01,3.132e+00
2.925e-01,3.102e+00
2.975e-01,3.068e+00
3.025e-01,3.031e+00
3.075e-01,2.990e+00
3.125e-01,2.947e+00
3.175e-01,2.901e+00
3.225e-01,2.852e+00
3.275e-01,2.802e+00
3.325e-01,2.750e+00
3.375e-01,2.696e+00
3.425e-01,2.641e+00
3.475e-01,2.585e+00
3.525e-01,2.529e+00
3.575e-01,2.471e+00
3.625e-01,2.414e+00
3.675e-01,2.356e+00
3.725e-01,2.298e+00
3.775e-01,2.240e+00
3.825e-01,2.182e+00
3.875e-01,2.125e+00
3.925e-01,2.068e+00
3.975e-01,2.011e+00
4.025e-01,1.955e+00
4.075e-01,1.900e+00
4.125e-01,1.845e+00
4.175e-01,1.792e+00
4.225e-01,1.739e+00
4.275e-01,1.687e+00
4.325e-01,1.636e+00
4.375e-01,1.586e+00
4.425e-01,1.537e+00
4.475e-01,1.489e+00
4.525e-01,1.442e+00
4.575e-01,1.396e+00
4.625e-01,1.351e+00
4.675e-01,1.308e+00
4.725e-01,1.265e+00
4.775e-01,1.224e+00
4.825e-01,1.183e+00
4.875e-01,1.144e+00
4.925e-01,1.106e+00
4.975e-01,1.069e+00
5.025e-01,1.033e+00
5.075e-01,9.976e-01
5.125e-01,9.635e-01
5.175e-01,9.305e-01
5.225e-01,8.984e-01
5.275e-01,8.674e-01
5.325e-01,8.373e-01
5.375e-01,8.081e-01
5.425e-01,7.798e-01
5.475e-01,7.525e-01
5.525e-01,7.260e-01
5.575e-01,7.004e-01
5.625e-01,6.756e-01
5.675e-01,6.516e-01
5.725e-01,6.284e-01
5.775e-01,6.060e-01
5.825e-01,5.844e-01
5.875e-01,5.634e-01
5.925e-01,5.432e-01
5.975e-01,5.237e-01
6.025e-01,5.048e-01
6.075e-01,4.866e-01
6.125e-01,4.690e-01
6.175e-01,4.521e-01
6.225e-01,4.357e-01
6.275e-01,4.199e-01
6.325e-01,4.047e-01
6.375e-01,3.900e-01
6.425e-01,3.758e-01
6.475e-01,3.621e-01
6.525e-01,3.489e-01
6.575e-01,3.362e-01
6.625e-01,3.239e-01
6.675e-01,3.121e-01
6.725e-01,3.007e-01
6.775e-01,2.897e-01
6.825e-01,2.791e-01
6.875e-01,2.689e-01
6.925e-01,2.591e-01
6.975e-01,2.496e-01
7.025e-01,2.405e-01
7.075e-01,2.317e-01
7.125e-01,2.232e-01
7.175e-01,2.151e-01
7.225e-01,2.072e-01
7.275e-01,1.996e-01
7.325e-01,1.923e-01
7.375e-01,1.853e-01
7.425e-01,1.785e-01
7.475e-01,1.720e-01
7.525e-01,1.657e-01
7.575e-01,1.597e-01
7.625e-01,1.538e-01
7.675e-01,1.482e-01
7.725e-01,1.428e-01
7.775e-01,1.376e-01
7.825e-01,1.326e-01
7.875e-01,1.278e-01
7.925e-01,1.231e-01
7.975e-01,1.186e-01
8.025e-01,1.143e-01
8.075e-01,1.102e-01
8.125e-01,1.062e-01
8.175e-01,1.023e-01
8.225e-01,9.863e-02
8.275e-01,9.505e-02
8.325e-01,9.162e-02
8.375e-01,8.830e-02
8.425e-01,8.511e-02
8.475e-01,8.204e-02
8.525e-01,7.908e-02
8.575e-01,7.624e-02
8.625e-01,7.349e-02
8.675e-01,7.085e-02
8.725e-01,6.830e-02
8.775e-01,6.585e-02
8.825e-01,6.349e-02
8.875e-01,6.122e-02
8.925e-01,5.903e-02
8.975e-01,5.692e-02
9.025e-01,5.488e-02
9.075e-01,5.293e-02
9.125e-01,5.104e-02
9.175e-01,4.922e-02
9.225e-01,4.747e-02
9.275e-01,4.579e-02
9.325e-01,4.416e-02
9.375e-01,4.260e-02
9.425e-01,4.109e-02
9.475e-01,3.964e-02
9.525e-01,3.824e-02
9.575e-01,3.689e-02
9.625e-01,3.559e-02
9.675e-01,3.434e-02
9.725e-01,3.313e-02
9.775e-01,3.197e-02
9.825e-01,3.085e-02
9.875e-01,2.977e-02
9.925e-01,2.873e-02
9.975e-01,2.772e-02
