transmittance,probability_density
2.500e-03,8.881e-87
7.500e-03,4.758e-55
1.250e-02,9.363e-43
1.750e-02,1.646e-35
2.250e-02,1.535e-30
2.750e-02,7.638e-27
3.250e-02,5.981e-24
3.750e-02,1.327e-21
4.250e-02,1.187e-19
4.750e-02,5.373e-18
5.250e-02,1.435e-16
5.750e-02,2.520e-15
6.250e-02,3.153e-14
6.750e-02,2.983e-13
7.250e-02,2.234e-12
7.750e-02,1.373e-11
8.250e-02,7.123e-11
8.750e-02,3.194e-10
9.250e-02,1.261e-09
9.750e-02,4.452e-09
1.025e-01,1.425e-08
1.075e-01,4.178e-08
1.125e-01,1.133e-07
1.175e-01,2.865e-07
1.225e-01,6.801e-07
1.275e-01,1.525e-06
1.325e-01,3.246e-06
1.375e-01,6.592e-06
1.425e-01,1.282e-05
1.475e-01,2.396e-05
1.525e-01,4.319e-05
1.575e-01,7.528e-05
1.625e-01,1.272e-04
1.675e-01,2.088e-04
1.725e-01,3.338e-04
1.775e-01,5.205e-04
1.825e-01,7.930e-04
1.875e-01,1.183e-03
1.925e-01,1.728e-03
1.975e-01,2.478e-03
2.025e-01,3.491e-03
2.075e-01,4.837e-03
2.125e-01,6.597e-03
2.175e-01,8.866e-03
2.225e-01,1.175e-02
2.275e-01,1.537e-02
2.325e-01,1.986e-02
2.375e-01,2.536e-02
2.425e-01,3.202e-02
2.475e-01,4.001e-02
2.525e-01,4.949e-02
2.575e-01,6.064e-02
2.625e-01,7.363e-02
2.675e-01,8.863e-02
2.725e-01,1.058e-01
2.775e-01,1.254e-01
2.825e-01,1.474e-01
2.875e-01,1.721e-01
2.925e-01,1.996e-01
2.975e-01,2.300e-01
3.025e-01,2.633e-01
3.075e-01,2.997e-01
3.125e-01,3.391e-01
3.175e-01,3.817e-01
3.225e-01,4.274e-01
3.275e-01,4.761e-01
3.325e-01,5.279e-01
3.375e-01,5.825e-01
3.425e-01,6.400e-01
3.475e-01,7.001e-01
3.525e-01,7.628e-01
3.575e-01,8.278e-01
3.625e-01,8.949e-01
3.675e-01,9.638e-01
3.725e-01,1.034e+00
3.775e-01,1.106e+00
3.825e-01,1.180e+00
3.875e-01,1.254e+00
3.925e-01,1.328e+00
3.975e-01,1.403e+00
4.025e-01,1.478e+00
4.075e-01,1.553e+00
4.125e-01,1.627e+00
4.175e-01,1.700e+00
4.225e-01,1.772e+00
4.275e-01,1.843e+00
4.325e-01,1.912e+00
4.375e-01,1.979e+00
4.425e-01,2.044e+00
4.475e-01,2.107e+00
4.525e-01,2.167e+00
4.575e-01,2.224e+00
4.625e-01,2.279e+00
4.675e-01,2.331e+00
4.725e-01,2.379e+00
4.775e-01,2.424e+00
4.825e-01,2.466e+00
4.875e-01,2.505e+00
4.925e-01,2.540e+00
4.975e-01,2.572e+00
5.025e-01,2.600e+00
5.075e-01,2.624e+00
5.125e-01,2.645e+00
5.175e-01,2.663e+00
5.225e-01,2.677e+00
5.275e-01,2.687e+00
5.325e-01,2.695e+00
5.375e-01,2.698e+00
5.425e-01,2.699e+00
5.475e-01,2.697e+00
5.525e-01,2.691e+00
5.575e-01,2.682e+00
5.625e-01,2.671e+00
5.675e-01,2.657e+00
5.725e-01,2.640e+00
5.775e-01,2.621e+00
5.825e-01,2.599e+00
5.875e-01,2.576e+00
5.925e-01,2.550e+00
5.975e-01,2.522e+00
6.025e-01,2.492e+00
6.075e-01,2.460e+00
6.125e-01,2.427e+00
6.175e-01,2.393e+00
6.225e-01,2.357e+00
6.275e-01,2.320e+00
6.325e-01,2.281e+00
6.375e-01,2.242e+00
6.425e-01,2.202e+00
6.475e-01,2.161e+00
6.525e-01,2.119e+00
6.575e-01,2.077e+00
6.625e-01,2.034e+00
6.675e-01,1.991e+00
6.725e-01,1.948e+00
6.775e-01,1.905e+00
6.825e-01,1.861e+00
6.875e-01,1.817e+00
6.925e-01,1.774e+00
6.975e-01,1.730e+00
7.025e-01,1.687e+00
7.075e-01,1.644e+00
7.125e-01,1.601e+00
7.175e-01,1.559e+00
7.225e-01,1.517e+00
7.275e-01,1.475e+00
7.325e-01,1.434e+00
7.375e-01,1.393e+00
7.425e-01,1.353e+00
7.475e-01,1.314e+00
7.525e-01,1.275e+00
7.575e-01,1.237e+00
7.625e-01,1.199e+00
7.675e-01,1.162e+00
7.725e-01,1.126e+00
7.775e-01,1.091e+00
7.825e-01,1.056e+00
7.875e-01,1.022e+00
7.925e-01,9.891e-01
7.975e-01,9.567e-01
8.025e-01,9.250e-01
8.075e-01,8.941e-01
8.125e-01,8.639e-01
8.175e-01,8.345e-01
8.225e-01,8.058e-01
8.275e-01,7.780e-01
8.325e-01,7.508e-01
8.375e-01,7.244e-01
8.425e-01,6.987e-01
8.475e-01,6.738e-01
8.525e-01,6.496e-01
8.575e-01,6.261e-01
8.625e-01,6.032e-01
8.675e-01,5.811e-01
8.725e-01,5.597e-01
8.775e-01,5.389e-01
8.825e-01,5.188e-01
8.875e-01,4.993e-01
8.925e-01,4.804e-01
8.975e-01,4.621e-01
9.025e-01,4.445e-01
9.075e-01,4.274e-01
9.125e-01,4.109e-01
9.175e-01,3.950e-01
9.225e-01,3.796e-01
9.275e-01,3.647e-01
9.325e-01,3.504e-01
9.375e-01,3.365e-01
9.425e-01,3.232e-01
9.475e-01,3.103e-01
9.525e-01,2.979e-01
9.575e-01,2.859e-01
9.625e-01,2.744e-01
9.675e-01,2.633e-01
9.725e-01,2.526e-01
9.775e-01,2.423e-01
9.825e-01,2.324e-01
9.875e-01,2.229e-01
9.925e-01,2.137e-01
9.975e-01,2.049e-01
