transmittance,probability_density
2.732e-04,1.011e+02
8.196e-04,7.969e+01
1.366e-03,6.518e+01
1.912e-03,5.690e+01
2.459e-03,5.337e+01
3.005e-03,4.971e+01
3.552e-03,4.705e+01
4.098e-03,4.462e+01
4.645e-03,4.320e+01
5.191e-03,4.212e+01
5.737e-03,4.049e+01
6.284e-03,3.954e+01
6.830e-03,3.925e+01
7.377e-03,3.852e+01
7.923e-03,3.698e+01
8.470e-03,3.648e+01
9.016e-03,3.495e+01
9.562e-03,3.461e+01
1.011e-02,3.424e+01
1.066e-02,3.329e+01
1.120e-02,3.281e+01
1.175e-02,3.193e+01
1.229e-02,2.997e+01
1.284e-02,3.105e+01
1.339e-02,2.960e+01
1.393e-02,2.872e+01
1.448e-02,2.811e+01
1.503e-02,2.784e+01
1.557e-02,2.739e+01
1.612e-02,2.617e+01
1.667e-02,2.501e+01
1.721e-02,2.517e+01
1.776e-02,2.426e+01
1.831e-02,2.290e+01
1.885e-02,2.306e+01
1.940e-02,2.174e+01
1.994e-02,2.041e+01
2.049e-02,1.999e+01
2.104e-02,1.999e+01
2.158e-02,1.886e+01
2.213e-02,1.830e+01
2.268e-02,1.751e+01
2.322e-02,1.667e+01
2.377e-02,1.585e+01
2.432e-02,1.569e+01
2.486e-02,1.494e+01
2.541e-02,1.416e+01
2.596e-02,1.229e+01
2.650e-02,1.292e+01
2.705e-02,1.233e+01
2.759e-02,1.224e+01
2.814e-02,1.197e+01
2.869e-02,1.069e+01
2.923e-02,1.012e+01
2.978e-02,9.321e+00
3.033e-02,9.086e+00
3.087e-02,9.387e+00
3.142e-02,8.844e+00
3.197e-02,8.120e+00
3.251e-02,7.654e+00
3.306e-02,7.194e+00
3.361e-02,6.580e+00
3.415e-02,6.432e+00
3.470e-02,5.774e+00
3.524e-02,5.527e+00
3.579e-02,5.072e+00
3.634e-02,5.143e+00
3.688e-02,4.754e+00
3.743e-02,4.430e+00
3.798e-02,4.408e+00
3.852e-02,3.992e+00
3.907e-02,3.772e+00
3.962e-02,3.361e+00
4.016e-02,3.427e+00
4.071e-02,2.977e+00
4.126e-02,2.977e+00
4.180e-02,2.785e+00
4.235e-02,2.528e+00
4.289e-02,2.286e+00
4.344e-02,2.204e+00
4.399e-02,2.149e+00
4.453e-02,1.919e+00
4.508e-02,1.809e+00
4.563e-02,1.634e+00
4.617e-02,1.557e+00
4.672e-02,1.431e+00
4.727e-02,1.343e+00
4.781e-02,1.354e+00
4.836e-02,1.289e+00
4.891e-02,1.135e+00
4.945e-02,1.091e+00
5.000e-02,9.486e-01
5.054e-02,8.225e-01
5.109e-02,8.005e-01
5.164e-02,8.115e-01
5.218e-02,6.909e-01
5.273e-02,6.470e-01
5.328e-02,6.964e-01
5.382e-02,6.360e-01
5.437e-02,5.264e-01
5.492e-02,4.386e-01
5.546e-02,4.551e-01
5.601e-02,3.948e-01
5.655e-02,4.441e-01
5.710e-02,3.783e-01
5.765e-02,3.235e-01
5.819e-02,3.674e-01
5.874e-02,3.619e-01
5.929e-02,2.577e-01
5.983e-02,2.632e-01
6.038e-02,2.303e-01
6.093e-02,1.809e-01
6.147e-02,2.084e-01
6.202e-02,2.358e-01
6.257e-02,1.426e-01
6.311e-02,1.535e-01
6.366e-02,1.426e-01
6.420e-02,1.316e-01
6.475e-02,2.193e-01
6.530e-02,1.151e-01
6.584e-02,9.870e-02
6.639e-02,9.870e-02
6.694e-02,1.042e-01
6.748e-02,6.580e-02
6.803e-02,6.031e-02
6.858e-02,6.580e-02
6.912e-02,1.042e-01
6.967e-02,4.386e-02
7.022e-02,4.935e-02
7.076e-02,4.935e-02
7.131e-02,6.031e-02
7.185e-02,4.386e-02
7.240e-02,4.935e-02
7.295e-02,1.097e-02
7.349e-02,4.935e-02
7.404e-02,6.031e-02
7.459e-02,1.645e-02
7.513e-02,4.386e-02
7.568e-02,1.097e-02
7.623e-02,2.742e-02
7.677e-02,1.645e-02
7.732e-02,2.193e-02
7.787e-02,1.645e-02
7.841e-02,5.483e-03
7.896e-02,1.097e-02
7.950e-02,1.097e-02
8.005e-02,2.193e-02
8.060e-02,1.097e-02
8.114e-02,1.097e-02
8.169e-02,1.097e-02
8.224e-02,1.645e-02
8.278e-02,0.000e+00
8.333e-02,0.000e+00
8.388e-02,5.483e-03
8.442e-02,5.483e-03
8.497e-02,5.483e-03
8.552e-02,1.097e-02
8.606e-02,0.000e+00
8.661e-02,5.483e-03
8.715e-02,0.000e+00
8.770e-02,0.000e+00
8.825e-02,5.483e-03
8.879e-02,0.000e+00
8.934e-02,5.483e-03
8.989e-02,0.000e+00
9.043e-02,1.097e-02
9.098e-02,5.483e-03
9.153e-02,5.483e-03
9.207e-02,0.000e+00
9.262e-02,0.000e+00
9.317e-02,5.483e-03
9.371e-02,0.000e+00
9.426e-02,0.000e+00
9.480e-02,0.000e+00
9.535e-02,0.000e+00
9.590e-02,0.000e+00
9.644e-02,0.000e+00
9.699e-02,0.000e+00
9.754e-02,0.000e+00
9.808e-02,5.483e-03
9.863e-02,0.000e+00
9.918e-02,5.483e-03
9.972e-02,0.000e+00
1.003e-01,0.000e+00
1.008e-01,0.000e+00
1.014e-01,0.000e+00
1.019e-01,0.000e+00
1.025e-01,0.000e+00
1.030e-01,0.000e+00
1.035e-01,0.000e+00
1.041e-01,0.000e+00
1.046e-01,0.000e+00
1.052e-01,0.000e+00
1.057e-01,0.000e+00
1.063e-01,0.000e+00
1.068e-01,0.000e+00
1.074e-01,0.000e+00
1.079e-01,0.000e+00
1.085e-01,0.000e+00
1.090e-01,0.000e+00
