transmittance,probability_density
2.500e-03,6.658e-06
7.500e-03,1.245e-04
1.250e-02,4.877e-04
1.750e-02,1.200e-03
2.250e-02,2.352e-03
2.750e-02,4.029e-03
3.250e-02,6.308e-03
3.750e-02,9.263e-03
4.250e-02,1.297e-02
4.750e-02,1.749e-02
5.250e-02,2.289e-02
5.750e-02,2.924e-02
6.250e-02,3.661e-02
6.750e-02,4.504e-02
7.250e-02,5.461e-02
7.750e-02,6.538e-02
8.250e-02,7.739e-02
8.750e-02,9.072e-02
9.250e-02,1.054e-01
9.750e-02,1.215e-01
1.025e-01,1.391e-01
1.075e-01,1.583e-01
1.125e-01,1.790e-01
1.175e-01,2.013e-01
1.225e-01,2.254e-01
1.275e-01,2.512e-01
1.325e-01,2.788e-01
1.375e-01,3.083e-01
1.425e-01,3.396e-01
1.475e-01,3.729e-01
1.525e-01,4.083e-01
1.575e-01,4.457e-01
1.625e-01,4.852e-01
1.675e-01,5.268e-01
1.725e-01,5.707e-01
1.775e-01,6.169e-01
1.825e-01,6.653e-01
1.875e-01,7.161e-01
1.925e-01,7.694e-01
1.975e-01,8.251e-01
2.025e-01,8.833e-01
2.075e-01,9.441e-01
2.125e-01,1.007e+00
2.175e-01,1.074e+00
2.225e-01,1.142e+00
2.275e-01,1.214e+00
2.325e-01,1.288e+00
2.375e-01,1.365e+00
2.425e-01,1.446e+00
2.475e-01,1.529e+00
2.525e-01,1.615e+00
2.575e-01,1.704e+00
2.625e-01,1.796e+00
2.675e-01,1.892e+00
2.725e-01,1.991e+00
2.775e-01,2.093e+00
2.825e-01,2.198e+00
2.875e-01,2.307e+00
2.925e-01,2.419e+00
2.975e-01,2.534e+00
3.025e-01,2.654e+00
3.075e-01,2.777e+00
3.125e-01,2.903e+00
3.175e-01,3.033e+00
3.225e-01,3.167e+00
3.275e-01,3.305e+00
3.325e-01,3.447e+00
3.375e-01,3.593e+00
3.425e-01,3.742e+00
3.475e-01,3.896e+00
3.525e-01,4.054e+00
3.575e-01,4.217e+00
3.625e-01,4.383e+00
3.675e-01,4.554e+00
3.725e-01,4.730e+00
3.775e-01,4.910e+00
3.825e-01,5.095e+00
3.875e-01,5.285e+00
3.925e-01,5.480e+00
3.975e-01,5.679e+00
4.025e-01,5.885e+00
4.075e-01,6.095e+00
4.125e-01,6.312e+00
4.175e-01,6.534e+00
4.225e-01,6.763e+00
4.275e-01,6.999e+00
4.325e-01,7.243e+00
4.375e-01,7.497e+00
4.425e-01,7.762e+00
4.475e-01,8.048e+00
4.525e-01,8.384e+00
4.575e-01,0.000e+00
4.625e-01,0.000e+00
4.675e-01,0.000e+00
4.725e-01,0.000e+00
4.775e-01,0.000e+00
4.825e-01,0.000e+00
4.875e-01,0.000e+00
4.925e-01,0.000e+00
4.975e-01,0.000e+00
5.025e-01,0.000e+00
5.075e-01,0.000e+00
5.125e-01,0.000e+00
5.175e-01,0.000e+00
5.225e-01,0.000e+00
5.275e-01,0.000e+00
5.325e-01,0.000e+00
5.375e-01,0.000e+00
5.425e-01,0.000e+00
5.475e-01,0.000e+00
5.525e-01,0.000e+00
5.575e-01,0.000e+00
5.625e-01,0.000e+00
5.675e-01,0.000e+00
5.725e-01,0.000e+00
5.775e-01,0.000e+00
5.825e-01,0.000e+00
5.875e-01,0.000e+00
5.925e-01,0.000e+00
5.975e-01,0.000e+00
6.025e-01,0.000e+00
6.075e-01,0.000e+00
6.125e-01,0.000e+00
6.175e-01,0.000e+00
6.225e-01,0.000e+00
6.275e-01,0.000e+00
6.325e-01,0.000e+00
6.375e-01,0.000e+00
6.425e-01,0.000e+00
6.475e-01,0.000e+00
6.525e-01,0.000e+00
6.575e-01,0.000e+00
6.625e-01,0.000e+00
6.675e-01,0.000e+00
6.725e-01,0.000e+00
6.775e-01,0.000e+00
6.825e-01,0.000e+00
6.875e-01,0.000e+00
6.925e-01,0.000e+00
6.975e-01,0.000e+00
7.025e-01,0.000e+00
7.075e-01,0.000e+00
7.125e-01,0.000e+00
7.175e-01,0.000e+00
7.225e-01,0.000e+00
7.275e-01,0.000e+00
7.325e-01,0.000e+00
7.375e-01,0.000e+00
7.425e-01,0.000e+00
7.475e-01,0.000e+00
7.525e-01,0.000e+00
7.575e-01,0.000e+00
7.625e-01,0.000e+00
7.675e-01,0.000e+00
7.725e-01,0.000e+00
7.775e-01,0.000e+00
7.825e-01,0.000e+00
7.875e-01,0.000e+00
7.925e-01,0.000e+00
7.975e-01,0.000e+00
8.025e-01,0.000e+00
8.075e-01,0.000e+00
8.125e-01,0.000e+00
8.175e-01,0.000e+00
8.225e-01,0.000e+00
8.275e-01,0.000e+00
8.325e-01,0.000e+00
8.375e-01,0.000e+00
8.425e-01,0.000e+00
8.475e-01,0.000e+00
8.525e-01,0.000e+00
8.575e-01,0.000e+00
8.625e-01,0.000e+00
8.675e-01,0.000e+00
8.725e-01,0.000e+00
8.775e-01,0.000e+00
8.825e-01,0.000e+00
8.875e-01,0.000e+00
8.925e-01,0.000e+00
8.975e-01,0.000e+00
9.025e-01,0.000e+00
9.075e-01,0.000e+00
9.125e-01,0.000e+00
9.175e-01,0.000e+00
9.225e-01,0.000e+00
9.275e-01,0.000e+00
9.325e-01,0.000e+00
9.375e-01,0.000e+00
9.425e-01,0.000e+00
9.475e-01,0.000e+00
9.525e-01,0.000e+00
9.575e-01,0.000e+00
9.625e-01,0.000e+00
9.675e-01,0.000e+00
9.725e-01,0.000e+00
9.775e-01,0.000e+00
9.825e-01,0.000e+00
9.875e-01,0.000e+00
9.925e-01,0.000e+00
9.975e-01,0.000e+00
