transmittance,probability_density
2.520e-01,1.504e-06
2.557e-01,1.669e-06
2.595e-01,1.850e-06
2.632e-01,2.048e-06
2.670e-01,2.266e-06
2.707e-01,2.504e-06
2.745e-01,2.765e-06
2.782e-01,3.051e-06
2.820e-01,3.362e-06
2.857e-01,3.703e-06
2.895e-01,4.075e-06
2.932e-01,4.481e-06
2.970e-01,4.924e-06
3.007e-01,5.406e-06
3.045e-01,5.931e-06
3.082e-01,6.503e-06
3.120e-01,7.125e-06
3.157e-01,7.801e-06
3.195e-01,8.536e-06
3.232e-01,9.334e-06
3.270e-01,1.020e-05
3.307e-01,1.114e-05
3.345e-01,1.216e-05
3.382e-01,1.326e-05
3.420e-01,1.446e-05
3.457e-01,1.576e-05
3.495e-01,1.716e-05
3.532e-01,1.868e-05
3.570e-01,2.032e-05
3.607e-01,2.210e-05
3.645e-01,2.402e-05
3.682e-01,2.610e-05
3.720e-01,2.834e-05
3.757e-01,3.076e-05
3.795e-01,3.337e-05
3.832e-01,3.619e-05
3.869e-01,3.923e-05
3.907e-01,4.250e-05
3.944e-01,4.604e-05
3.982e-01,4.984e-05
4.019e-01,5.395e-05
4.057e-01,5.836e-05
4.094e-01,6.312e-05
4.132e-01,6.824e-05
4.169e-01,7.375e-05
4.207e-01,7.968e-05
4.244e-01,8.605e-05
4.282e-01,9.291e-05
4.319e-01,1.003e-04
4.357e-01,1.082e-04
4.394e-01,1.167e-04
4.432e-01,1.259e-04
4.469e-01,1.357e-04
4.507e-01,1.462e-04
4.544e-01,1.576e-04
4.582e-01,1.697e-04
4.619e-01,1.828e-04
4.657e-01,1.968e-04
4.694e-01,2.118e-04
4.732e-01,2.280e-04
4.769e-01,2.453e-04
4.807e-01,2.638e-04
4.844e-01,2.837e-04
4.882e-01,3.051e-04
4.919e-01,3.279e-04
4.957e-01,3.525e-04
4.994e-01,3.787e-04
5.032e-01,4.069e-04
5.069e-01,4.371e-04
5.107e-01,4.694e-04
5.144e-01,5.040e-04
5.182e-01,5.411e-04
5.219e-01,5.809e-04
5.257e-01,6.235e-04
5.294e-01,6.690e-04
5.332e-01,7.179e-04
5.369e-01,7.701e-04
5.407e-01,8.261e-04
5.444e-01,8.860e-04
5.482e-01,9.502e-04
5.519e-01,1.019e-03
5.557e-01,1.092e-03
5.594e-01,1.171e-03
5.632e-01,1.255e-03
5.669e-01,1.346e-03
5.707e-01,1.442e-03
5.744e-01,1.545e-03
5.782e-01,1.656e-03
5.819e-01,1.775e-03
5.857e-01,1.901e-03
5.894e-01,2.037e-03
5.932e-01,2.182e-03
5.969e-01,2.338e-03
6.007e-01,2.504e-03
6.044e-01,2.682e-03
6.082e-01,2.873e-03
6.119e-01,3.077e-03
6.157e-01,3.295e-03
6.194e-01,3.529e-03
6.232e-01,3.780e-03
6.269e-01,4.048e-03
6.307e-01,4.335e-03
6.344e-01,4.643e-03
6.382e-01,4.973e-03
6.419e-01,5.326e-03
6.457e-01,5.704e-03
6.494e-01,6.109e-03
6.532e-01,6.543e-03
6.569e-01,7.008e-03
6.607e-01,7.507e-03
6.644e-01,8.041e-03
6.682e-01,8.614e-03
6.719e-01,9.228e-03
6.757e-01,9.886e-03
6.794e-01,1.059e-02
6.832e-01,1.135e-02
6.869e-01,1.216e-02
6.907e-01,1.304e-02
6.944e-01,1.397e-02
6.982e-01,1.498e-02
7.019e-01,1.606e-02
7.057e-01,1.721e-02
7.094e-01,1.846e-02
7.132e-01,1.980e-02
7.169e-01,2.123e-02
7.207e-01,2.278e-02
7.244e-01,2.444e-02
7.282e-01,2.623e-02
7.319e-01,2.815e-02
7.357e-01,3.022e-02
7.394e-01,3.245e-02
7.432e-01,3.485e-02
7.469e-01,3.743e-02
7.507e-01,4.022e-02
7.544e-01,4.322e-02
7.582e-01,4.646e-02
7.619e-01,4.996e-02
7.657e-01,5.373e-02
7.694e-01,5.780e-02
7.732e-01,6.221e-02
7.769e-01,6.696e-02
7.807e-01,7.211e-02
7.844e-01,7.767e-02
7.882e-01,8.370e-02
7.919e-01,9.022e-02
7.956e-01,9.729e-02
7.994e-01,1.050e-01
8.031e-01,1.133e-01
8.069e-01,1.223e-01
8.106e-01,1.321e-01
8.144e-01,1.428e-01
8.181e-01,1.544e-01
8.219e-01,1.670e-01
8.256e-01,1.808e-01
8.294e-01,1.958e-01
8.331e-01,2.122e-01
8.369e-01,2.302e-01
8.406e-01,2.498e-01
8.444e-01,2.712e-01
8.481e-01,2.947e-01
8.519e-01,3.205e-01
8.556e-01,3.489e-01
8.594e-01,3.800e-01
8.631e-01,4.144e-01
8.669e-01,4.522e-01
8.706e-01,4.940e-01
8.744e-01,5.403e-01
8.781e-01,5.915e-01
8.819e-01,6.484e-01
8.856e-01,7.117e-01
8.894e-01,7.822e-01
8.931e-01,8.609e-01
8.969e-01,9.491e-01
9.006e-01,1.048e+00
9.044e-01,1.159e+00
9.081e-01,1.285e+00
9.119e-01,1.427e+00
9.156e-01,1.588e+00
9.194e-01,1.772e+00
9.231e-01,1.983e+00
9.269e-01,2.226e+00
9.306e-01,2.506e+00
9.344e-01,2.832e+00
9.381e-01,3.214e+00
9.419e-01,3.664e+00
9.456e-01,4.200e+00
9.494e-01,4.843e+00
9.531e-01,5.625e+00
9.569e-01,6.590e+00
9.606e-01,7.801e+00
9.644e-01,9.355e+00
9.681e-01,1.141e+01
9.719e-01,1.423e+01
9.756e-01,1.834e+01
9.794e-01,2.493e+01
9.831e-01,3.759e+01
9.869e-01,8.139e+01
9.906e-01,0.000e+00
9.944e-01,0.000e+00
9.981e-01,0.000e+00
