transmittance,probability_density
2.500e-03,6.302e-12
7.500e-03,6.206e-10
1.250e-02,5.520e-09
1.750e-02,2.378e-08
2.250e-02,7.165e-08
2.750e-02,1.742e-07
3.250e-02,3.672e-07
3.750e-02,6.986e-07
4.250e-02,1.230e-06
4.750e-02,2.041e-06
5.250e-02,3.225e-06
5.750e-02,4.899e-06
6.250e-02,7.199e-06
6.750e-02,1.029e-05
7.250e-02,1.435e-05
7.750e-02,1.961e-05
8.250e-02,2.630e-05
8.750e-02,3.470e-05
9.250e-02,4.514e-05
9.750e-02,5.796e-05
1.025e-01,7.356e-05
1.075e-01,9.238e-05
1.125e-01,1.149e-04
1.175e-01,1.416e-04
1.225e-01,1.732e-04
1.275e-01,2.103e-04
1.325e-01,2.535e-04
1.375e-01,3.036e-04
1.425e-01,3.615e-04
1.475e-01,4.281e-04
1.525e-01,5.044e-04
1.575e-01,5.914e-04
1.625e-01,6.902e-04
1.675e-01,8.021e-04
1.725e-01,9.284e-04
1.775e-01,1.071e-03
1.825e-01,1.230e-03
1.875e-01,1.409e-03
1.925e-01,1.608e-03
1.975e-01,1.830e-03
2.025e-01,2.076e-03
2.075e-01,2.349e-03
2.125e-01,2.651e-03
2.175e-01,2.984e-03
2.225e-01,3.351e-03
2.275e-01,3.755e-03
2.325e-01,4.198e-03
2.375e-01,4.684e-03
2.425e-01,5.215e-03
2.475e-01,5.795e-03
2.525e-01,6.428e-03
2.575e-01,7.118e-03
2.625e-01,7.868e-03
2.675e-01,8.682e-03
2.725e-01,9.566e-03
2.775e-01,1.052e-02
2.825e-01,1.156e-02
2.875e-01,1.268e-02
2.925e-01,1.389e-02
2.975e-01,1.520e-02
3.025e-01,1.660e-02
3.075e-01,1.812e-02
3.125e-01,1.975e-02
3.175e-01,2.150e-02
3.225e-01,2.338e-02
3.275e-01,2.540e-02
3.325e-01,2.756e-02
3.375e-01,2.988e-02
3.425e-01,3.236e-02
3.475e-01,3.501e-02
3.525e-01,3.784e-02
3.575e-01,4.087e-02
3.625e-01,4.410e-02
3.675e-01,4.754e-02
3.725e-01,5.122e-02
3.775e-01,5.513e-02
3.825e-01,5.929e-02
3.875e-01,6.372e-02
3.925e-01,6.843e-02
3.975e-01,7.343e-02
4.025e-01,7.875e-02
4.075e-01,8.440e-02
4.125e-01,9.038e-02
4.175e-01,9.674e-02
4.225e-01,1.035e-01
4.275e-01,1.106e-01
4.325e-01,1.182e-01
4.375e-01,1.262e-01
4.425e-01,1.346e-01
4.475e-01,1.436e-01
4.525e-01,1.531e-01
4.575e-01,1.631e-01
4.625e-01,1.737e-01
4.675e-01,1.848e-01
4.725e-01,1.966e-01
4.775e-01,2.091e-01
4.825e-01,2.222e-01
4.875e-01,2.361e-01
4.925e-01,2.507e-01
4.975e-01,2.661e-01
5.025e-01,2.824e-01
5.075e-01,2.995e-01
5.125e-01,3.175e-01
5.175e-01,3.365e-01
5.225e-01,3.565e-01
5.275e-01,3.776e-01
5.325e-01,3.997e-01
5.375e-01,4.231e-01
5.425e-01,4.476e-01
5.475e-01,4.734e-01
5.525e-01,5.006e-01
5.575e-01,5.291e-01
5.625e-01,5.591e-01
5.675e-01,5.907e-01
5.725e-01,6.239e-01
5.775e-01,6.587e-01
5.825e-01,6.954e-01
5.875e-01,7.339e-01
5.925e-01,7.743e-01
5.975e-01,8.168e-01
6.025e-01,8.615e-01
6.075e-01,9.084e-01
6.125e-01,9.577e-01
6.175e-01,1.009e+00
6.225e-01,1.064e+00
6.275e-01,1.121e+00
6.325e-01,1.181e+00
6.375e-01,1.244e+00
6.425e-01,1.310e+00
6.475e-01,1.380e+00
6.525e-01,1.453e+00
6.575e-01,1.530e+00
6.625e-01,1.611e+00
6.675e-01,1.696e+00
6.725e-01,1.786e+00
6.775e-01,1.880e+00
6.825e-01,1.979e+00
6.875e-01,2.083e+00
6.925e-01,2.193e+00
6.975e-01,2.308e+00
7.025e-01,2.430e+00
7.075e-01,2.558e+00
7.125e-01,2.694e+00
7.175e-01,2.837e+00
7.225e-01,2.987e+00
7.275e-01,3.147e+00
7.325e-01,3.316e+00
7.375e-01,3.494e+00
7.425e-01,3.684e+00
7.475e-01,3.885e+00
7.525e-01,4.099e+00
7.575e-01,4.326e+00
7.625e-01,4.569e+00
7.675e-01,4.828e+00
7.725e-01,5.106e+00
7.775e-01,5.404e+00
7.825e-01,5.726e+00
7.875e-01,6.075e+00
7.925e-01,6.455e+00
7.975e-01,6.872e+00
8.025e-01,7.334e+00
8.075e-01,7.850e+00
8.125e-01,8.440e+00
8.175e-01,9.129e+00
8.225e-01,9.971e+00
8.275e-01,1.109e+01
8.325e-01,1.292e+01
8.375e-01,0.000e+00
8.425e-01,0.000e+00
8.475e-01,0.000e+00
8.525e-01,0.000e+00
8.575e-01,0.000e+00
8.625e-01,0.000e+00
8.675e-01,0.000e+00
8.725e-01,0.000e+00
8.775e-01,0.000e+00
8.825e-01,0.000e+00
8.875e-01,0.000e+00
8.925e-01,0.000e+00
8.975e-01,0.000e+00
9.025e-01,0.000e+00
9.075e-01,0.000e+00
9.125e-01,0.000e+00
9.175e-01,0.000e+00
9.225e-01,0.000e+00
9.275e-01,0.000e+00
9.325e-01,0.000e+00
9.375e-01,0.000e+00
9.425e-01,0.000e+00
9.475e-01,0.000e+00
9.525e-01,0.000e+00
9.575e-01,0.000e+00
9.625e-01,0.000e+00
9.675e-01,0.000e+00
9.725e-01,0.000e+00
9.775e-01,0.000e+00
9.825e-01,0.000e+00
9.875e-01,0.000e+00
9.925e-01,0.000e+00
9.975e-01,0.000e+00
