transmittance,probability_density
1.635e-01,1.660e-06
1.677e-01,1.943e-06
1.718e-01,2.267e-06
1.760e-01,2.638e-06
1.802e-01,3.060e-06
1.844e-01,3.540e-06
1.886e-01,4.084e-06
1.928e-01,4.701e-06
1.970e-01,5.397e-06
2.012e-01,6.182e-06
2.054e-01,7.066e-06
2.096e-01,8.060e-06
2.138e-01,9.174e-06
2.180e-01,1.042e-05
2.222e-01,1.182e-05
2.264e-01,1.337e-05
2.306e-01,1.511e-05
2.347e-01,1.704e-05
2.389e-01,1.919e-05
2.431e-01,2.157e-05
2.473e-01,2.422e-05
2.515e-01,2.714e-05
2.557e-01,3.038e-05
2.599e-01,3.396e-05
2.641e-01,3.790e-05
2.683e-01,4.226e-05
2.725e-01,4.705e-05
2.767e-01,5.232e-05
2.809e-01,5.812e-05
2.851e-01,6.448e-05
2.893e-01,7.146e-05
2.934e-01,7.911e-05
2.976e-01,8.749e-05
3.018e-01,9.666e-05
3.060e-01,1.067e-04
3.102e-01,1.176e-04
3.144e-01,1.296e-04
3.186e-01,1.426e-04
3.228e-01,1.569e-04
3.270e-01,1.723e-04
3.312e-01,1.892e-04
3.354e-01,2.075e-04
3.396e-01,2.275e-04
3.438e-01,2.491e-04
3.480e-01,2.727e-04
3.522e-01,2.982e-04
3.563e-01,3.259e-04
3.605e-01,3.559e-04
3.647e-01,3.883e-04
3.689e-01,4.235e-04
3.731e-01,4.616e-04
3.773e-01,5.028e-04
3.815e-01,5.473e-04
3.857e-01,5.954e-04
3.899e-01,6.474e-04
3.941e-01,7.035e-04
3.983e-01,7.641e-04
4.025e-01,8.294e-04
4.067e-01,8.998e-04
4.109e-01,9.757e-04
4.151e-01,1.057e-03
4.192e-01,1.146e-03
4.234e-01,1.240e-03
4.276e-01,1.342e-03
4.318e-01,1.452e-03
4.360e-01,1.570e-03
4.402e-01,1.697e-03
4.444e-01,1.833e-03
4.486e-01,1.980e-03
4.528e-01,2.137e-03
4.570e-01,2.306e-03
4.612e-01,2.487e-03
4.654e-01,2.682e-03
4.696e-01,2.891e-03
4.738e-01,3.115e-03
4.779e-01,3.355e-03
4.821e-01,3.612e-03
4.863e-01,3.888e-03
4.905e-01,4.184e-03
4.947e-01,4.500e-03
4.989e-01,4.839e-03
5.031e-01,5.202e-03
5.073e-01,5.591e-03
5.115e-01,6.007e-03
5.157e-01,6.452e-03
5.199e-01,6.928e-03
5.241e-01,7.438e-03
5.283e-01,7.983e-03
5.325e-01,8.566e-03
5.367e-01,9.189e-03
5.408e-01,9.856e-03
5.450e-01,1.057e-02
5.492e-01,1.133e-02
5.534e-01,1.214e-02
5.576e-01,1.301e-02
5.618e-01,1.394e-02
5.660e-01,1.493e-02
5.702e-01,1.599e-02
5.744e-01,1.713e-02
5.786e-01,1.833e-02
5.828e-01,1.963e-02
5.870e-01,2.101e-02
5.912e-01,2.248e-02
5.954e-01,2.405e-02
5.996e-01,2.573e-02
6.037e-01,2.752e-02
6.079e-01,2.944e-02
6.121e-01,3.148e-02
6.163e-01,3.366e-02
6.205e-01,3.599e-02
6.247e-01,3.847e-02
6.289e-01,4.113e-02
6.331e-01,4.396e-02
6.373e-01,4.699e-02
6.415e-01,5.022e-02
6.457e-01,5.366e-02
6.499e-01,5.734e-02
6.541e-01,6.127e-02
6.583e-01,6.547e-02
6.624e-01,6.995e-02
6.666e-01,7.474e-02
6.708e-01,7.985e-02
6.750e-01,8.531e-02
6.792e-01,9.115e-02
6.834e-01,9.738e-02
6.876e-01,1.040e-01
6.918e-01,1.112e-01
6.960e-01,1.188e-01
7.002e-01,1.269e-01
7.044e-01,1.356e-01
7.086e-01,1.449e-01
7.128e-01,1.548e-01
7.170e-01,1.655e-01
7.212e-01,1.768e-01
7.253e-01,1.890e-01
7.295e-01,2.021e-01
7.337e-01,2.160e-01
7.379e-01,2.310e-01
7.421e-01,2.470e-01
7.463e-01,2.642e-01
7.505e-01,2.826e-01
7.547e-01,3.024e-01
7.589e-01,3.236e-01
7.631e-01,3.463e-01
7.673e-01,3.707e-01
7.715e-01,3.970e-01
7.757e-01,4.252e-01
7.799e-01,4.555e-01
7.841e-01,4.881e-01
7.882e-01,5.232e-01
7.924e-01,5.610e-01
7.966e-01,6.018e-01
8.008e-01,6.457e-01
8.050e-01,6.931e-01
8.092e-01,7.443e-01
8.134e-01,7.997e-01
8.176e-01,8.595e-01
8.218e-01,9.243e-01
8.260e-01,9.945e-01
8.302e-01,1.071e+00
8.344e-01,1.153e+00
8.386e-01,1.243e+00
8.428e-01,1.341e+00
8.469e-01,1.447e+00
8.511e-01,1.563e+00
8.553e-01,1.690e+00
8.595e-01,1.829e+00
8.637e-01,1.982e+00
8.679e-01,2.149e+00
8.721e-01,2.333e+00
8.763e-01,2.537e+00
8.805e-01,2.761e+00
8.847e-01,3.011e+00
8.889e-01,3.288e+00
8.931e-01,3.598e+00
8.973e-01,3.945e+00
9.015e-01,4.336e+00
9.057e-01,4.777e+00
9.098e-01,5.280e+00
9.140e-01,5.856e+00
9.182e-01,6.520e+00
9.224e-01,7.295e+00
9.266e-01,8.208e+00
9.308e-01,9.301e+00
9.350e-01,1.063e+01
9.392e-01,1.230e+01
9.434e-01,1.447e+01
9.476e-01,1.744e+01
9.518e-01,2.196e+01
9.560e-01,3.057e+01
9.602e-01,0.000e+00
9.644e-01,0.000e+00
9.686e-01,0.000e+00
9.727e-01,0.000e+00
9.769e-01,0.000e+00
9.811e-01,0.000e+00
9.853e-01,0.000e+00
9.895e-01,0.000e+00
9.937e-01,0.000e+00
9.979e-01,0.000e+00
