transmittance,probability_density
2.862e-01,2.153e-07
2.898e-01,2.392e-07
2.934e-01,2.655e-07
2.970e-01,2.945e-07
3.006e-01,3.263e-07
3.041e-01,3.614e-07
3.077e-01,3.999e-07
3.113e-01,4.422e-07
3.149e-01,4.887e-07
3.184e-01,5.397e-07
3.220e-01,5.956e-07
3.256e-01,6.569e-07
3.292e-01,7.241e-07
3.328e-01,7.976e-07
3.363e-01,8.781e-07
3.399e-01,9.661e-07
3.435e-01,1.062e-06
3.471e-01,1.168e-06
3.506e-01,1.282e-06
3.542e-01,1.408e-06
3.578e-01,1.545e-06
3.614e-01,1.694e-06
3.650e-01,1.857e-06
3.685e-01,2.035e-06
3.721e-01,2.229e-06
3.757e-01,2.440e-06
3.793e-01,2.669e-06
3.828e-01,2.919e-06
3.864e-01,3.191e-06
3.900e-01,3.488e-06
3.936e-01,3.809e-06
3.972e-01,4.159e-06
4.007e-01,4.540e-06
4.043e-01,4.953e-06
4.079e-01,5.402e-06
4.115e-01,5.890e-06
4.150e-01,6.419e-06
4.186e-01,6.993e-06
4.222e-01,7.616e-06
4.258e-01,8.292e-06
4.294e-01,9.025e-06
4.329e-01,9.820e-06
4.365e-01,1.068e-05
4.401e-01,1.162e-05
4.437e-01,1.263e-05
4.472e-01,1.372e-05
4.508e-01,1.491e-05
4.544e-01,1.619e-05
4.580e-01,1.759e-05
4.616e-01,1.909e-05
4.651e-01,2.072e-05
4.687e-01,2.248e-05
4.723e-01,2.439e-05
4.759e-01,2.645e-05
4.794e-01,2.868e-05
4.830e-01,3.110e-05
4.866e-01,3.370e-05
4.902e-01,3.652e-05
4.938e-01,3.957e-05
4.973e-01,4.286e-05
5.009e-01,4.642e-05
5.045e-01,5.027e-05
5.081e-01,5.442e-05
5.116e-01,5.891e-05
5.152e-01,6.375e-05
5.188e-01,6.898e-05
5.224e-01,7.464e-05
5.260e-01,8.074e-05
5.295e-01,8.733e-05
5.331e-01,9.444e-05
5.367e-01,1.021e-04
5.403e-01,1.104e-04
5.438e-01,1.194e-04
5.474e-01,1.290e-04
5.510e-01,1.394e-04
5.546e-01,1.507e-04
5.582e-01,1.628e-04
5.617e-01,1.759e-04
5.653e-01,1.901e-04
5.689e-01,2.053e-04
5.725e-01,2.218e-04
5.760e-01,2.396e-04
5.796e-01,2.587e-04
5.832e-01,2.794e-04
5.868e-01,3.018e-04
5.904e-01,3.259e-04
5.939e-01,3.519e-04
5.975e-01,3.799e-04
6.011e-01,4.102e-04
6.047e-01,4.429e-04
6.082e-01,4.782e-04
6.118e-01,5.162e-04
6.154e-01,5.573e-04
6.190e-01,6.017e-04
6.225e-01,6.496e-04
6.261e-01,7.013e-04
6.297e-01,7.571e-04
6.333e-01,8.174e-04
6.369e-01,8.824e-04
6.404e-01,9.527e-04
6.440e-01,1.029e-03
6.476e-01,1.111e-03
6.512e-01,1.199e-03
6.547e-01,1.295e-03
6.583e-01,1.398e-03
6.619e-01,1.510e-03
6.655e-01,1.631e-03
6.691e-01,1.761e-03
6.726e-01,1.903e-03
6.762e-01,2.055e-03
6.798e-01,2.220e-03
6.834e-01,2.399e-03
6.869e-01,2.592e-03
6.905e-01,2.801e-03
6.941e-01,3.028e-03
6.977e-01,3.273e-03
7.013e-01,3.538e-03
7.048e-01,3.825e-03
7.084e-01,4.137e-03
7.120e-01,4.474e-03
7.156e-01,4.840e-03
7.191e-01,5.236e-03
7.227e-01,5.666e-03
7.263e-01,6.133e-03
7.299e-01,6.639e-03
7.335e-01,7.188e-03
7.370e-01,7.785e-03
7.406e-01,8.432e-03
7.442e-01,9.136e-03
7.478e-01,9.902e-03
7.513e-01,1.073e-02
7.549e-01,1.164e-02
7.585e-01,1.262e-02
7.621e-01,1.370e-02
7.657e-01,1.486e-02
7.692e-01,1.614e-02
7.728e-01,1.752e-02
7.764e-01,1.904e-02
7.800e-01,2.069e-02
7.835e-01,2.249e-02
7.871e-01,2.446e-02
7.907e-01,2.661e-02
7.943e-01,2.897e-02
7.979e-01,3.154e-02
8.014e-01,3.436e-02
8.050e-01,3.745e-02
8.086e-01,4.084e-02
8.122e-01,4.456e-02
8.157e-01,4.864e-02
8.193e-01,5.312e-02
8.229e-01,5.806e-02
8.265e-01,6.349e-02
8.301e-01,6.947e-02
8.336e-01,7.606e-02
8.372e-01,8.334e-02
8.408e-01,9.138e-02
8.444e-01,1.003e-01
8.479e-01,1.101e-01
8.515e-01,1.210e-01
8.551e-01,1.331e-01
8.587e-01,1.466e-01
8.623e-01,1.615e-01
8.658e-01,1.782e-01
8.694e-01,1.968e-01
8.730e-01,2.176e-01
8.766e-01,2.408e-01
8.801e-01,2.669e-01
8.837e-01,2.962e-01
8.873e-01,3.291e-01
8.909e-01,3.663e-01
8.945e-01,4.082e-01
8.980e-01,4.558e-01
9.016e-01,5.098e-01
9.052e-01,5.712e-01
9.088e-01,6.414e-01
9.123e-01,7.217e-01
9.159e-01,8.140e-01
9.195e-01,9.205e-01
9.231e-01,1.044e+00
9.267e-01,1.187e+00
9.302e-01,1.355e+00
9.338e-01,1.551e+00
9.374e-01,1.784e+00
9.410e-01,2.060e+00
9.445e-01,2.391e+00
9.481e-01,2.791e+00
9.517e-01,3.279e+00
9.553e-01,3.881e+00
9.589e-01,4.633e+00
9.624e-01,5.589e+00
9.660e-01,6.828e+00
9.696e-01,8.473e+00
9.732e-01,1.073e+01
9.767e-01,1.397e+01
9.803e-01,1.892e+01
9.839e-01,2.735e+01
9.875e-01,4.506e+01
9.911e-01,1.236e+02
9.946e-01,0.000e+00
9.982e-01,0.000e+00
