transmittance,probability_density
3.024e-01,3.150e-06
3.059e-01,3.499e-06
3.094e-01,3.885e-06
3.129e-01,4.309e-06
3.164e-01,4.775e-06
3.199e-01,5.288e-06
3.234e-01,5.852e-06
3.269e-01,6.471e-06
3.304e-01,7.150e-06
3.339e-01,7.894e-06
3.374e-01,8.710e-06
3.408e-01,9.603e-06
3.443e-01,1.058e-05
3.478e-01,1.165e-05
3.513e-01,1.282e-05
3.548e-01,1.410e-05
3.583e-01,1.550e-05
3.618e-01,1.702e-05
3.653e-01,1.868e-05
3.688e-01,2.050e-05
3.723e-01,2.247e-05
3.758e-01,2.463e-05
3.793e-01,2.697e-05
3.828e-01,2.953e-05
3.863e-01,3.231e-05
3.898e-01,3.533e-05
3.933e-01,3.861e-05
3.968e-01,4.218e-05
4.003e-01,4.606e-05
4.038e-01,5.027e-05
4.073e-01,5.484e-05
4.108e-01,5.980e-05
4.143e-01,6.518e-05
4.178e-01,7.101e-05
4.213e-01,7.733e-05
4.248e-01,8.418e-05
4.283e-01,9.159e-05
4.318e-01,9.962e-05
4.353e-01,1.083e-04
4.388e-01,1.177e-04
4.423e-01,1.279e-04
4.458e-01,1.389e-04
4.493e-01,1.508e-04
4.527e-01,1.636e-04
4.562e-01,1.775e-04
4.597e-01,1.925e-04
4.632e-01,2.087e-04
4.667e-01,2.262e-04
4.702e-01,2.451e-04
4.737e-01,2.654e-04
4.772e-01,2.874e-04
4.807e-01,3.111e-04
4.842e-01,3.366e-04
4.877e-01,3.641e-04
4.912e-01,3.938e-04
4.947e-01,4.258e-04
4.982e-01,4.602e-04
5.017e-01,4.973e-04
5.052e-01,5.373e-04
5.087e-01,5.803e-04
5.122e-01,6.266e-04
5.157e-01,6.764e-04
5.192e-01,7.300e-04
5.227e-01,7.877e-04
5.262e-01,8.498e-04
5.297e-01,9.165e-04
5.332e-01,9.883e-04
5.367e-01,1.065e-03
5.402e-01,1.148e-03
5.437e-01,1.238e-03
5.472e-01,1.333e-03
5.507e-01,1.436e-03
5.542e-01,1.547e-03
5.577e-01,1.666e-03
5.611e-01,1.794e-03
5.646e-01,1.931e-03
5.681e-01,2.078e-03
5.716e-01,2.236e-03
5.751e-01,2.406e-03
5.786e-01,2.589e-03
5.821e-01,2.785e-03
5.856e-01,2.995e-03
5.891e-01,3.220e-03
5.926e-01,3.463e-03
5.961e-01,3.723e-03
5.996e-01,4.002e-03
6.031e-01,4.301e-03
6.066e-01,4.622e-03
6.101e-01,4.967e-03
6.136e-01,5.337e-03
6.171e-01,5.734e-03
6.206e-01,6.159e-03
6.241e-01,6.616e-03
6.276e-01,7.106e-03
6.311e-01,7.632e-03
6.346e-01,8.196e-03
6.381e-01,8.802e-03
6.416e-01,9.451e-03
6.451e-01,1.015e-02
6.486e-01,1.090e-02
6.521e-01,1.170e-02
6.556e-01,1.256e-02
6.591e-01,1.348e-02
6.626e-01,1.447e-02
6.661e-01,1.553e-02
6.696e-01,1.667e-02
6.730e-01,1.790e-02
6.765e-01,1.921e-02
6.800e-01,2.062e-02
6.835e-01,2.214e-02
6.870e-01,2.376e-02
6.905e-01,2.550e-02
6.940e-01,2.738e-02
6.975e-01,2.939e-02
7.010e-01,3.154e-02
7.045e-01,3.386e-02
7.080e-01,3.635e-02
7.115e-01,3.903e-02
7.150e-01,4.190e-02
7.185e-01,4.499e-02
7.220e-01,4.831e-02
7.255e-01,5.188e-02
7.290e-01,5.572e-02
7.325e-01,5.985e-02
7.360e-01,6.428e-02
7.395e-01,6.906e-02
7.430e-01,7.419e-02
7.465e-01,7.972e-02
7.500e-01,8.567e-02
7.535e-01,9.208e-02
7.570e-01,9.899e-02
7.605e-01,1.064e-01
7.640e-01,1.144e-01
7.675e-01,1.231e-01
7.710e-01,1.324e-01
7.745e-01,1.424e-01
7.780e-01,1.533e-01
7.814e-01,1.650e-01
7.849e-01,1.776e-01
7.884e-01,1.913e-01
7.919e-01,2.061e-01
7.954e-01,2.220e-01
7.989e-01,2.393e-01
8.024e-01,2.580e-01
8.059e-01,2.782e-01
8.094e-01,3.001e-01
8.129e-01,3.239e-01
8.164e-01,3.496e-01
8.199e-01,3.776e-01
8.234e-01,4.080e-01
8.269e-01,4.410e-01
8.304e-01,4.769e-01
8.339e-01,5.160e-01
8.374e-01,5.586e-01
8.409e-01,6.050e-01
8.444e-01,6.556e-01
8.479e-01,7.109e-01
8.514e-01,7.713e-01
8.549e-01,8.375e-01
8.584e-01,9.099e-01
8.619e-01,9.894e-01
8.654e-01,1.077e+00
8.689e-01,1.173e+00
8.724e-01,1.278e+00
8.759e-01,1.395e+00
8.794e-01,1.524e+00
8.829e-01,1.667e+00
8.864e-01,1.825e+00
8.899e-01,2.000e+00
8.933e-01,2.196e+00
8.968e-01,2.415e+00
9.003e-01,2.660e+00
9.038e-01,2.935e+00
9.073e-01,3.244e+00
9.108e-01,3.594e+00
9.143e-01,3.992e+00
9.178e-01,4.446e+00
9.213e-01,4.966e+00
9.248e-01,5.566e+00
9.283e-01,6.264e+00
9.318e-01,7.081e+00
9.353e-01,8.047e+00
9.388e-01,9.204e+00
9.423e-01,1.061e+01
9.458e-01,1.235e+01
9.493e-01,1.456e+01
9.528e-01,1.748e+01
9.563e-01,2.152e+01
9.598e-01,2.769e+01
9.633e-01,3.908e+01
9.668e-01,9.079e+01
9.703e-01,0.000e+00
9.738e-01,0.000e+00
9.773e-01,0.000e+00
9.808e-01,0.000e+00
9.843e-01,0.000e+00
9.878e-01,0.000e+00
9.913e-01,0.000e+00
9.948e-01,0.000e+00
9.983e-01,0.000e+00
