transmittance,probability_density
2.500e-03,8.698e-13
7.500e-03,3.407e-10
1.250e-02,5.445e-09
1.750e-02,3.370e-08
2.250e-02,1.312e-07
2.750e-02,3.877e-07
3.250e-02,9.543e-07
3.750e-02,2.061e-06
4.250e-02,4.039e-06
4.750e-02,7.335e-06
5.250e-02,1.254e-05
5.750e-02,2.039e-05
6.250e-02,3.182e-05
6.750e-02,4.795e-05
7.250e-02,7.011e-05
7.750e-02,9.990e-05
8.250e-02,1.391e-04
8.750e-02,1.899e-04
9.250e-02,2.547e-04
9.750e-02,3.361e-04
1.025e-01,4.372e-04
1.075e-01,5.614e-04
1.125e-01,7.124e-04
1.175e-01,8.943e-04
1.225e-01,1.112e-03
1.275e-01,1.369e-03
1.325e-01,1.672e-03
1.375e-01,2.026e-03
1.425e-01,2.437e-03
1.475e-01,2.912e-03
1.525e-01,3.458e-03
1.575e-01,4.081e-03
1.625e-01,4.791e-03
1.675e-01,5.595e-03
1.725e-01,6.501e-03
1.775e-01,7.520e-03
1.825e-01,8.660e-03
1.875e-01,9.931e-03
1.925e-01,1.134e-02
1.975e-01,1.291e-02
2.025e-01,1.464e-02
2.075e-01,1.655e-02
2.125e-01,1.864e-02
2.175e-01,2.094e-02
2.225e-01,2.345e-02
2.275e-01,2.618e-02
2.325e-01,2.916e-02
2.375e-01,3.239e-02
2.425e-01,3.588e-02
2.475e-01,3.966e-02
2.525e-01,4.374e-02
2.575e-01,4.813e-02
2.625e-01,5.286e-02
2.675e-01,5.792e-02
2.725e-01,6.334e-02
2.775e-01,6.914e-02
2.825e-01,7.534e-02
2.875e-01,8.194e-02
2.925e-01,8.896e-02
2.975e-01,9.643e-02
3.025e-01,1.043e-01
3.075e-01,1.127e-01
3.125e-01,1.216e-01
3.175e-01,1.310e-01
3.225e-01,1.409e-01
3.275e-01,1.514e-01
3.325e-01,1.624e-01
3.375e-01,1.740e-01
3.425e-01,1.861e-01
3.475e-01,1.989e-01
3.525e-01,2.123e-01
3.575e-01,2.263e-01
3.625e-01,2.409e-01
3.675e-01,2.563e-01
3.725e-01,2.722e-01
3.775e-01,2.889e-01
3.825e-01,3.063e-01
3.875e-01,3.243e-01
3.925e-01,3.431e-01
3.975e-01,3.626e-01
4.025e-01,3.829e-01
4.075e-01,4.038e-01
4.125e-01,4.256e-01
4.175e-01,4.481e-01
4.225e-01,4.714e-01
4.275e-01,4.954e-01
4.325e-01,5.202e-01
4.375e-01,5.458e-01
4.425e-01,5.721e-01
4.475e-01,5.993e-01
4.525e-01,6.272e-01
4.575e-01,6.559e-01
4.625e-01,6.853e-01
4.675e-01,7.155e-01
4.725e-01,7.465e-01
4.775e-01,7.783e-01
4.825e-01,8.107e-01
4.875e-01,8.439e-01
4.925e-01,8.779e-01
4.975e-01,9.125e-01
5.025e-01,9.478e-01
5.075e-01,9.838e-01
5.125e-01,1.020e+00
5.175e-01,1.058e+00
5.225e-01,1.096e+00
5.275e-01,1.134e+00
5.325e-01,1.173e+00
5.375e-01,1.213e+00
5.425e-01,1.253e+00
5.475e-01,1.293e+00
5.525e-01,1.334e+00
5.575e-01,1.376e+00
5.625e-01,1.418e+00
5.675e-01,1.460e+00
5.725e-01,1.502e+00
5.775e-01,1.545e+00
5.825e-01,1.588e+00
5.875e-01,1.631e+00
5.925e-01,1.674e+00
5.975e-01,1.717e+00
6.025e-01,1.760e+00
6.075e-01,1.803e+00
6.125e-01,1.846e+00
6.175e-01,1.889e+00
6.225e-01,1.931e+00
6.275e-01,1.973e+00
6.325e-01,2.015e+00
6.375e-01,2.057e+00
6.425e-01,2.097e+00
6.475e-01,2.138e+00
6.525e-01,2.177e+00
6.575e-01,2.216e+00
6.625e-01,2.254e+00
6.675e-01,2.292e+00
6.725e-01,2.328e+00
6.775e-01,2.363e+00
6.825e-01,2.397e+00
6.875e-01,2.430e+00
6.925e-01,2.462e+00
6.975e-01,2.492e+00
7.025e-01,2.521e+00
7.075e-01,2.548e+00
7.125e-01,2.574e+00
7.175e-01,2.597e+00
7.225e-01,2.619e+00
7.275e-01,2.640e+00
7.325e-01,2.658e+00
7.375e-01,2.674e+00
7.425e-01,2.688e+00
7.475e-01,2.699e+00
7.525e-01,2.708e+00
7.575e-01,2.715e+00
7.625e-01,2.719e+00
7.675e-01,2.721e+00
7.725e-01,2.720e+00
7.775e-01,2.716e+00
7.825e-01,2.709e+00
7.875e-01,2.700e+00
7.925e-01,2.687e+00
7.975e-01,2.671e+00
8.025e-01,2.652e+00
8.075e-01,2.630e+00
8.125e-01,2.605e+00
8.175e-01,2.576e+00
8.225e-01,2.545e+00
8.275e-01,2.509e+00
8.325e-01,2.470e+00
8.375e-01,2.428e+00
8.425e-01,2.383e+00
8.475e-01,2.334e+00
8.525e-01,2.281e+00
8.575e-01,2.225e+00
8.625e-01,2.166e+00
8.675e-01,2.103e+00
8.725e-01,2.037e+00
8.775e-01,1.967e+00
8.825e-01,1.895e+00
8.875e-01,1.819e+00
8.925e-01,1.740e+00
8.975e-01,1.659e+00
9.025e-01,1.575e+00
9.075e-01,1.489e+00
9.125e-01,1.400e+00
9.175e-01,1.309e+00
9.225e-01,1.217e+00
9.275e-01,1.123e+00
9.325e-01,1.028e+00
9.375e-01,9.328e-01
9.425e-01,8.372e-01
9.475e-01,7.420e-01
9.525e-01,6.477e-01
9.575e-01,5.551e-01
9.625e-01,4.649e-01
9.675e-01,3.780e-01
9.725e-01,2.954e-01
9.775e-01,2.184e-01
9.825e-01,1.486e-01
9.875e-01,8.784e-02
9.925e-01,3.899e-02
9.975e-01,6.586e-03
