transmittance,probability_density
2.500e-03,1.419e-14
7.500e-03,1.237e-11
1.250e-02,2.870e-10
1.750e-02,2.270e-09
2.250e-02,1.061e-08
2.750e-02,3.631e-08
3.250e-02,1.009e-07
3.750e-02,2.420e-07
4.250e-02,5.195e-07
4.750e-02,1.023e-06
5.250e-02,1.881e-06
5.750e-02,3.269e-06
6.250e-02,5.421e-06
6.750e-02,8.640e-06
7.250e-02,1.331e-05
7.750e-02,1.991e-05
8.250e-02,2.902e-05
8.750e-02,4.135e-05
9.250e-02,5.775e-05
9.750e-02,7.919e-05
1.025e-01,1.068e-04
1.075e-01,1.420e-04
1.125e-01,1.863e-04
1.175e-01,2.414e-04
1.225e-01,3.093e-04
1.275e-01,3.922e-04
1.325e-01,4.926e-04
1.375e-01,6.133e-04
1.425e-01,7.572e-04
1.475e-01,9.279e-04
1.525e-01,1.129e-03
1.575e-01,1.364e-03
1.625e-01,1.638e-03
1.675e-01,1.956e-03
1.725e-01,2.322e-03
1.775e-01,2.742e-03
1.825e-01,3.223e-03
1.875e-01,3.770e-03
1.925e-01,4.390e-03
1.975e-01,5.090e-03
2.025e-01,5.879e-03
2.075e-01,6.763e-03
2.125e-01,7.753e-03
2.175e-01,8.856e-03
2.225e-01,1.008e-02
2.275e-01,1.144e-02
2.325e-01,1.295e-02
2.375e-01,1.461e-02
2.425e-01,1.643e-02
2.475e-01,1.844e-02
2.525e-01,2.063e-02
2.575e-01,2.303e-02
2.625e-01,2.565e-02
2.675e-01,2.849e-02
2.725e-01,3.158e-02
2.775e-01,3.494e-02
2.825e-01,3.857e-02
2.875e-01,4.249e-02
2.925e-01,4.671e-02
2.975e-01,5.126e-02
3.025e-01,5.615e-02
3.075e-01,6.140e-02
3.125e-01,6.703e-02
3.175e-01,7.304e-02
3.225e-01,7.947e-02
3.275e-01,8.633e-02
3.325e-01,9.364e-02
3.375e-01,1.014e-01
3.425e-01,1.097e-01
3.475e-01,1.184e-01
3.525e-01,1.277e-01
3.575e-01,1.376e-01
3.625e-01,1.480e-01
3.675e-01,1.590e-01
3.725e-01,1.706e-01
3.775e-01,1.828e-01
3.825e-01,1.956e-01
3.875e-01,2.091e-01
3.925e-01,2.233e-01
3.975e-01,2.382e-01
4.025e-01,2.538e-01
4.075e-01,2.702e-01
4.125e-01,2.873e-01
4.175e-01,3.051e-01
4.225e-01,3.238e-01
4.275e-01,3.432e-01
4.325e-01,3.635e-01
4.375e-01,3.846e-01
4.425e-01,4.065e-01
4.475e-01,4.293e-01
4.525e-01,4.530e-01
4.575e-01,4.775e-01
4.625e-01,5.029e-01
4.675e-01,5.292e-01
4.725e-01,5.565e-01
4.775e-01,5.846e-01
4.825e-01,6.137e-01
4.875e-01,6.436e-01
4.925e-01,6.745e-01
4.975e-01,7.063e-01
5.025e-01,7.391e-01
5.075e-01,7.727e-01
5.125e-01,8.073e-01
5.175e-01,8.428e-01
5.225e-01,8.791e-01
5.275e-01,9.164e-01
5.325e-01,9.545e-01
5.375e-01,9.935e-01
5.425e-01,1.033e+00
5.475e-01,1.074e+00
5.525e-01,1.115e+00
5.575e-01,1.158e+00
5.625e-01,1.201e+00
5.675e-01,1.244e+00
5.725e-01,1.289e+00
5.775e-01,1.334e+00
5.825e-01,1.379e+00
5.875e-01,1.426e+00
5.925e-01,1.472e+00
5.975e-01,1.520e+00
6.025e-01,1.567e+00
6.075e-01,1.615e+00
6.125e-01,1.664e+00
6.175e-01,1.713e+00
6.225e-01,1.762e+00
6.275e-01,1.811e+00
6.325e-01,1.860e+00
6.375e-01,1.909e+00
6.425e-01,1.958e+00
6.475e-01,2.007e+00
6.525e-01,2.056e+00
6.575e-01,2.105e+00
6.625e-01,2.153e+00
6.675e-01,2.200e+00
6.725e-01,2.248e+00
6.775e-01,2.294e+00
6.825e-01,2.340e+00
6.875e-01,2.385e+00
6.925e-01,2.429e+00
6.975e-01,2.471e+00
7.025e-01,2.513e+00
7.075e-01,2.553e+00
7.125e-01,2.593e+00
7.175e-01,2.630e+00
7.225e-01,2.666e+00
7.275e-01,2.700e+00
7.325e-01,2.732e+00
7.375e-01,2.763e+00
7.425e-01,2.791e+00
7.475e-01,2.817e+00
7.525e-01,2.840e+00
7.575e-01,2.861e+00
7.625e-01,2.880e+00
7.675e-01,2.895e+00
7.725e-01,2.908e+00
7.775e-01,2.918e+00
7.825e-01,2.924e+00
7.875e-01,2.928e+00
7.925e-01,2.928e+00
7.975e-01,2.924e+00
8.025e-01,2.917e+00
8.075e-01,2.906e+00
8.125e-01,2.891e+00
8.175e-01,2.873e+00
8.225e-01,2.850e+00
8.275e-01,2.823e+00
8.325e-01,2.792e+00
8.375e-01,2.756e+00
8.425e-01,2.717e+00
8.475e-01,2.672e+00
8.525e-01,2.624e+00
8.575e-01,2.570e+00
8.625e-01,2.513e+00
8.675e-01,2.450e+00
8.725e-01,2.384e+00
8.775e-01,2.312e+00
8.825e-01,2.236e+00
8.875e-01,2.156e+00
8.925e-01,2.072e+00
8.975e-01,1.983e+00
9.025e-01,1.891e+00
9.075e-01,1.795e+00
9.125e-01,1.695e+00
9.175e-01,1.591e+00
9.225e-01,1.485e+00
9.275e-01,1.376e+00
9.325e-01,1.265e+00
9.375e-01,1.153e+00
9.425e-01,1.039e+00
9.475e-01,9.246e-01
9.525e-01,8.105e-01
9.575e-01,6.974e-01
9.625e-01,5.865e-01
9.675e-01,4.788e-01
9.725e-01,3.758e-01
9.775e-01,2.791e-01
9.825e-01,1.907e-01
9.875e-01,1.133e-01
9.925e-01,5.054e-02
9.975e-01,8.595e-03
